\wavsamp version 5.1 (Wed Apr 20 08:45:04 PDT 2005)
\processing time 13:41:54 PST 04/26/2005
\character channelID = 2
| order |x_center |y_center |   wavelength   |  angle   |   x0    |   y0    |   x1    |   y1    |   x2    |   y2    |   x3    |   y3    |
| int   |  real   |  real   |    real        |   real   |  real   |  real   |  real   |  real   |  real   |  real   |  real   |  real   |
       2  78.87431  78.90159         14.04510  -1.200000  94.61685  79.03327  63.10293  79.69339  63.13087  78.76991  94.64479  78.10979
       2  78.90047  77.97810         14.12978  -1.200000  94.64479  78.10979  63.13087  78.76991  63.15530  77.84642  94.66923  77.18630
       2  78.92323  77.05462         14.21445  -1.200000  94.66923  77.18630  63.15530  77.84642  63.17644  76.92294  94.69036  76.26282
       2  78.94279  76.13114         14.29913  -1.200000  94.69036  76.26282  63.17644  76.92294  63.19448  75.99946  94.70840  75.33934
       2  78.95937  75.20765         14.38381  -1.200000  94.70840  75.33934  63.19448  75.99946  63.20965  75.07597  94.72357  74.41585
       2  78.97317  74.28417         14.46848  -1.200000  94.72357  74.41585  63.20965  75.07597  63.22213  74.15249  94.73605  73.49237
       2  78.98439  73.36069         14.55316  -1.200000  94.73605  73.49237  63.22213  74.15249  63.23214  73.22901  94.74606  72.56889
       2  78.99323  72.43721         14.63784  -1.200000  94.74606  72.56889  63.23214  73.22901  63.23985  72.30552  94.75377  71.64540
       2  78.99987  71.51372         14.72251  -1.200000  94.75377  71.64540  63.23985  72.30552  63.24546  71.38204  94.75938  70.72192
       2  79.00450  70.59024         14.80719  -1.200000  94.75938  70.72192  63.24546  71.38204  63.24915  70.45856  94.76307  69.79844
       2  79.00729  69.66676         14.89187  -1.200000  94.76307  69.79844  63.24915  70.45856  63.25110  69.53507  94.76502  68.87495
       2  79.00844  68.74327         14.97655  -1.200000  94.76502  68.87495  63.25110  69.53507  63.25148  68.61159  94.76541  67.95147
       2  79.00810  67.81979         15.06122  -1.200000  94.76541  67.95147  63.25148  68.61159  63.25047  67.68811  94.76439  67.02799
       2  79.00645  66.89631         15.14590  -1.200000  94.76439  67.02799  63.25047  67.68811  63.24821  66.76463  94.76214  66.10450
       2  79.00363  65.97282         15.23058  -1.200000  94.76214  66.10450  63.24821  66.76463  63.24488  65.84114  94.75881  65.18102
       2  78.99983  65.04934         15.31525  -1.200000  94.75881  65.18102  63.24488  65.84114  63.24063  64.91766  94.75456  64.25754
       2  78.99517  64.12586         15.39993  -1.200000  94.75456  64.25754  63.24063  64.91766  63.23561  63.99418  94.74953  63.33405
       2  78.98982  63.20237         15.48461  -1.200000  94.74953  63.33405  63.23561  63.99418  63.22996  63.07069  94.74388  62.41057
       2  78.98391  62.27889         15.56928  -1.200000  94.74388  62.41057  63.22996  63.07069  63.22383  62.14721  94.73775  61.48709
       2  78.97758  61.35541         15.65396  -1.200000  94.73775  61.48709  63.22383  62.14721  63.21734  61.22373  94.73126  60.56360
       2  78.97096  60.43192         15.73864  -1.200000  94.73126  60.56360  63.21734  61.22373  63.21063  60.30024  94.72455  59.64012
       2  78.96419  59.50844         15.82331  -1.200000  94.72455  59.64012  63.21063  60.30024  63.20383  59.37676  94.71775  58.71664
       2  78.95739  58.58496         15.90799  -1.200000  94.71775  58.71664  63.20383  59.37676  63.19706  58.45328  94.71098  57.79315
       2  78.95068  57.66147         15.99267  -1.200000  94.71098  57.79315  63.19706  58.45328  63.19043  57.52979  94.70435  56.86967
       2  78.94416  56.73799         16.07734  -1.200000  94.70435  56.86967  63.19043  57.52979  63.18405  56.60631  94.69797  55.94619
       2  78.93796  55.81451         16.16202  -1.200000  94.69797  55.94619  63.18405  56.60631  63.17804  55.68283  94.69196  55.02270
       2  78.93217  54.89102         16.24670  -1.200000  94.69196  55.02270  63.17804  55.68283  63.17250  54.75934  94.68642  54.09922
       2  78.92689  53.96754         16.33138  -1.200000  94.68642  54.09922  63.17250  54.75934  63.16752  53.83586  94.68144  53.17574
       2  78.92223  53.04406         16.41605  -1.200000  94.68144  53.17574  63.16752  53.83586  63.16319  52.91238  94.67711  52.25225
       2  78.91827  52.12057         16.50073  -1.200000  94.67711  52.25225  63.16319  52.91238  63.15961  51.98889  94.67354  51.32877
       2  78.91509  51.19709         16.58541  -1.200000  94.67354  51.32877  63.15961  51.98889  63.15687  51.06541  94.67079  50.40529
       2  78.91279  50.27361         16.67008  -1.200000  94.67079  50.40529  63.15687  51.06541  63.15502  50.14193  94.66894  49.48180
       2  78.91143  49.35012         16.75476  -1.200000  94.66894  49.48180  63.15502  50.14193  63.15416  49.21844  94.66808  48.55832
       2  78.91108  48.42664         16.83944  -1.200000  94.66808  48.55832  63.15416  49.21844  63.15435  48.29496  94.66828  47.63484
       2  78.91183  47.50316         16.92411  -1.200000  94.66828  47.63484  63.15435  48.29496  63.15566  47.37148  94.66958  46.71135
       2  78.91371  46.57967         17.00879  -1.200000  94.66958  46.71135  63.15566  47.37148  63.15815  46.44799  94.67207  45.78787
       2  78.91681  45.65619         17.09347  -1.200000  94.67207  45.78787  63.15815  46.44799  63.16186  45.52451  94.67578  44.86439
       2  78.92116  44.73271         17.17814  -1.200000  94.67578  44.86439  63.16186  45.52451  63.16686  44.60103  94.68078  43.94090
       2  78.92681  43.80922         17.26282  -1.200000  94.68078  43.94090  63.16686  44.60103  63.17318  43.67754  94.68711  43.01742
       2  78.93382  42.88574         17.34750  -1.200000  94.68711  43.01742  63.17318  43.67754  63.18088  42.75406  94.69480  42.09394
       2  78.94221  41.96226         17.43217  -1.200000  94.69480  42.09394  63.18088  42.75406  63.18998  41.83058  94.70390  41.17045
       2  78.95202  41.03877         17.51685  -1.200000  94.70390  41.17045  63.18998  41.83058  63.20051  40.90709  94.71444  40.24697
       2  78.96329  40.11529         17.60153  -1.200000  94.71444  40.24697  63.20051  40.90709  63.21251  39.98361  94.72644  39.32349
       2  78.97603  39.19181         17.68621  -1.200000  94.72644  39.32349  63.21251  39.98361  63.22600  39.06013  94.73992  38.40000
       2  78.99027  38.26832         17.77088  -1.200000  94.73992  38.40000  63.22600  39.06013  63.24099  38.13664  94.75491  37.47652
       2  79.00602  37.34484         17.85556  -1.200000  94.75491  37.47652  63.24099  38.13664  63.25750  37.21316  94.77142  36.55304
       2  79.02328  36.42136         17.94024  -1.200000  94.77142  36.55304  63.25750  37.21316  63.27553  36.28968  94.78945  35.62955
       2  79.04208  35.49787         18.02491  -1.200000  94.78945  35.62955  63.27553  36.28968  63.29509  35.36619  94.80901  34.70607
       2  79.06240  34.57439         18.10959  -1.200000  94.80901  34.70607  63.29509  35.36619  63.31618  34.44271  94.83010  33.78259
       2  79.08425  33.65091         18.19427  -1.200000  94.83010  33.78259  63.31618  34.44271  63.33878  33.51923  94.85270  32.85910
       2  79.10761  32.72742         18.27894  -1.200000  94.85270  32.85910  63.33878  33.51923  63.36290  32.59574  94.87682  31.93562
       2  79.13248  31.80394         18.36362  -1.200000  94.87682  31.93562  63.36290  32.59574  63.38851  31.67226  94.90243  31.01214
       2  79.15883  30.88046         18.44830  -1.200000  94.90243  31.01214  63.38851  31.67226  63.41559  30.74878  94.92952  30.08865
       2  79.18664  29.95697         18.53297  -1.200000  94.92952  30.08865  63.41559  30.74878  63.44413  29.82529  94.95805  29.16517
       2  79.21589  29.03349         18.61765  -1.200000  94.95805  29.16517  63.44413  29.82529  63.47408  28.90181  94.98800  28.24169
       2  79.24654  28.11001         18.70233  -1.200000  94.98800  28.24169  63.47408  28.90181  63.50541  27.97833  95.01934  27.31820
       2  79.27855  27.18652         18.78700  -1.200000  95.01934  27.31820  63.50541  27.97833  63.53810  27.05484  95.05202  26.39472
       2  79.31189  26.26304         18.87168  -1.200000  95.05202  26.39472  63.53810  27.05484  63.57208  26.13136  95.08600  25.47124
       2  79.34650  25.33956         18.95636  -1.200000  95.08600  25.47124  63.57208  26.13136  63.60731  25.20788  95.12124  24.54775
       2  79.38235  24.41607         19.04104  -1.200000  95.12124  24.54775  63.60731  25.20788  63.64375  24.28439  95.15767  23.62427
       2  79.41936  23.49259         19.12571  -1.200000  95.15767  23.62427  63.64375  24.28439  63.68133  23.36091  95.19525  22.70079
       2  79.45748  22.56911         19.21039  -1.200000  95.19525  22.70079  63.68133  23.36091  63.71998  22.43743  95.23390  21.77730
       2  79.49665  21.64562         19.29507  -1.200000  95.23390  21.77730  63.71998  22.43743  63.75965  21.51394  95.27357  20.85382
       2  79.53680  20.72214         19.37974  -1.200000  95.27357  20.85382  63.75965  21.51394  63.80025  20.59046  95.31417  19.93034
       2  79.57784  19.79866         19.46442  -1.200000  95.31417  19.93034  63.80025  20.59046  63.84172  19.66698  95.35564  19.00686
       2  79.61971  18.87517         19.54910  -1.200000  95.35564  19.00686  63.84172  19.66698  63.88397  18.74349  95.39789  18.08337
       2  79.66232  17.95169         19.63377  -1.200000  95.39789  18.08337  63.88397  18.74349  63.92691  17.82001  95.44083  17.15989
       2  79.70557  17.02821         19.71845  -1.200000  95.44083  17.15989  63.92691  17.82001  63.97045  16.89653  95.48437  16.23641
       2  79.74938  16.10472         19.80313  -1.200000  95.48437  16.23641  63.97045  16.89653  64.01450  15.97304  95.52842  15.31292
       2  79.79365  15.18124         19.88780  -1.200000  95.52842  15.31292  64.01450  15.97304  64.05896  15.04956  95.57288  14.38944
       2  79.83827  14.25776         19.97248  -1.200000  95.57288  14.38944  64.05896  15.04956  64.10372  14.12608  95.61764  13.46596
       2  79.88313  13.33428         20.05716  -1.200000  95.61764  13.46596  64.10372  14.12608  64.14866  13.20259  95.66258  12.54247
       2  79.92813  12.41079         20.14183  -1.200000  95.66258  12.54247  64.14866  13.20259  64.19369  12.27911  95.70761  11.61899
       2  79.97315  11.48731         20.22651  -1.200000  95.70761  11.61899  64.19369  12.27911  64.23867  11.35563  95.75259  10.69551
       2  80.01806  10.56383         20.31119  -1.200000  95.75259  10.69551  64.23867  11.35563  64.28348  10.43214  95.79740   9.77202
       2  80.06274   9.64034         20.39587  -1.200000  95.79740   9.77202  64.28348  10.43214  64.32800   9.50866  95.84192   8.84854
       2  80.10706   8.71686         20.48054  -1.200000  95.84192   8.84854  64.32800   9.50866  64.37208   8.58518  95.88600   7.92506
       2  80.15088   7.79338         20.56522  -1.200000  95.88600   7.92506  64.37208   8.58518  64.41560   7.66169  95.92952   7.00157
       2  80.19406   6.86989         20.64990  -1.200000  95.92952   7.00157  64.41560   7.66169  64.45840   6.73821  95.97233   6.07809
       2  80.23646   5.94641         20.73457  -1.200000  95.97233   6.07809  64.45840   6.73821  64.50035   5.81473  96.01427   5.15461
       2  80.27791   5.02293         20.81925  -1.200000  96.01427   5.15461  64.50035   5.81473  64.54128   4.89125  96.05521   4.23112
       2  80.31828   4.09944         20.90393  -1.200000  96.05521   4.23112  64.54128   4.89125  64.58105   3.96776  96.09497   3.30764
       2  80.35740   3.17596         20.98860  -1.200000  96.09497   3.30764  64.58105   3.96776  64.61948   3.04428  96.13340   2.38416
       2  80.39511   2.25248         21.07328  -1.200000  96.13340   2.38416  64.61948   3.04428  64.65642   2.12080  96.17034   1.46067
       2  80.43123   1.32899         21.15796  -1.200000  96.17034   1.46067  64.65642   2.12080  64.69168   1.19731  96.20560   0.53719
       2  80.46559   0.40551         21.24263  -1.200000  96.20560   0.53719  64.69168   1.19731  64.72510   0.27383  96.23902  -0.38629
       2  80.49802  -0.51797         21.32731  -1.200000  96.23902  -0.38629  64.72510   0.27383  64.75649  -0.64965  96.27041  -1.30978
       3  81.30141 127.05254         19.37974  -1.200000  97.06381 126.95335  65.54989 127.61347  65.53866 127.15173  97.05258 126.49161
       3  81.28949 126.59080         19.46442  -1.200000  97.05258 126.49161  65.53866 127.15173  65.52606 126.68999  97.03998 126.02987
       3  81.27620 126.12906         19.54910  -1.200000  97.03998 126.02987  65.52606 126.68999  65.51207 126.22825  97.02600 125.56812
       3  81.26153 125.66732         19.63377  -1.200000  97.02600 125.56812  65.51207 126.22825  65.49672 125.76651  97.01064 125.10638
       3  81.24548 125.20557         19.71845  -1.200000  97.01064 125.10638  65.49672 125.76651  65.47998 125.30476  96.99390 124.64464
       3  81.22805 124.74383         19.80313  -1.200000  96.99390 124.64464  65.47998 125.30476  65.46186 124.84302  96.97579 124.18290
       3  81.20925 124.28209         19.88780  -1.200000  96.97579 124.18290  65.46186 124.84302  65.44237 124.38128  96.95629 123.72116
       3  81.18907 123.82035         19.97248  -1.200000  96.95629 123.72116  65.44237 124.38128  65.42150 123.91954  96.93542 123.25942
       3  81.16751 123.35861         20.05716  -1.200000  96.93542 123.25942  65.42150 123.91954  65.39925 123.45780  96.91318 122.79767
       3  81.14457 122.89686         20.14183  -1.200000  96.91318 122.79767  65.39925 123.45780  65.37563 122.99605  96.88955 122.33593
       3  81.12026 122.43512         20.22651  -1.200000  96.88955 122.33593  65.37563 122.99605  65.35063 122.53431  96.86455 121.87419
       3  81.09457 121.97338         20.31119  -1.200000  96.86455 121.87419  65.35063 122.53431  65.32425 122.07257  96.83817 121.41245
       3  81.06750 121.51164         20.39587  -1.200000  96.83817 121.41245  65.32425 122.07257  65.29649 121.61083  96.81041 120.95071
       3  81.03905 121.04990         20.48054  -1.200000  96.81041 120.95071  65.29649 121.61083  65.26735 121.14909  96.78127 120.48897
       3  81.00923 120.58816         20.56522  -1.200000  96.78127 120.48897  65.26735 121.14909  65.23684 120.68735  96.75076 120.02722
       3  80.97803 120.12641         20.64990  -1.200000  96.75076 120.02722  65.23684 120.68735  65.20495 120.22560  96.71887 119.56548
       3  80.94545 119.66467         20.73457  -1.200000  96.71887 119.56548  65.20495 120.22560  65.17168 119.76386  96.68560 119.10374
       3  80.91149 119.20293         20.81925  -1.200000  96.68560 119.10374  65.17168 119.76386  65.13703 119.30212  96.65095 118.64200
       3  80.87615 118.74119         20.90393  -1.200000  96.65095 118.64200  65.13703 119.30212  65.10101 118.84038  96.61493 118.18026
       3  80.83944 118.27945         20.98860  -1.200000  96.61493 118.18026  65.10101 118.84038  65.06361 118.37864  96.57753 117.71851
       3  80.80135 117.81770         21.07328  -1.200000  96.57753 117.71851  65.06361 118.37864  65.02483 117.91690  96.53875 117.25677
       3  80.76188 117.35596         21.15796  -1.200000  96.53875 117.25677  65.02483 117.91690  64.98467 117.45515  96.49859 116.79503
       3  80.72104 116.89422         21.24263  -1.200000  96.49859 116.79503  64.98467 117.45515  64.94314 116.99341  96.45706 116.33329
       3  80.67881 116.43248         21.32731  -1.200000  96.45706 116.33329  64.94314 116.99341  64.90022 116.53167  96.41415 115.87155
       3  80.63521 115.97074         21.41199  -1.200000  96.41415 115.87155  64.90022 116.53167  64.85593 116.06993  96.36986 115.40981
       3  80.59023 115.50900         21.49666  -1.200000  96.36986 115.40981  64.85593 116.06993  64.81027 115.60819  96.32419 114.94806
       3  80.54388 115.04725         21.58134  -1.200000  96.32419 114.94806  64.81027 115.60819  64.76322 115.14644  96.27714 114.48632
       3  80.49614 114.58551         21.66602  -1.200000  96.27714 114.48632  64.76322 115.14644  64.71480 114.68470  96.22872 114.02458
       1  42.40481 127.01177         19.54910  -1.200000  58.18890 127.16310  26.67497 127.82322  26.62091 126.86057  58.13483 126.20044
       1  42.35113 126.04938         19.71845  -1.200000  58.13483 126.20044  26.62091 126.86057  26.56761 125.89844  58.08154 125.23832
       1  42.29822 125.08752         19.88780  -1.200000  58.08154 125.23832  26.56761 125.89844  26.51509 124.93685  58.02901 124.27672
       1  42.24608 124.12619         20.05716  -1.200000  58.02901 124.27672  26.51509 124.93685  26.46334 123.97578  57.97726 123.31566
       1  42.19471 123.16539         20.22651  -1.200000  57.97726 123.31566  26.46334 123.97578  26.41235 123.01525  57.92627 122.35513
       1  42.14411 122.20512         20.39587  -1.200000  57.92627 122.35513  26.41235 123.01525  26.36214 122.05525  57.87606 121.39512
       1  42.09428 121.24538         20.56522  -1.200000  57.87606 121.39512  26.36214 122.05525  26.31269 121.09578  57.82661 120.43565
       1  42.04522 120.28618         20.73457  -1.200000  57.82661 120.43565  26.31269 121.09578  26.26402 120.13683  57.77794 119.47671
       1  41.99693 119.32750         20.90393  -1.200000  57.77794 119.47671  26.26402 120.13683  26.21611 119.17842  57.73003 118.51830
       1  41.94941 118.36936         21.07328  -1.200000  57.73003 118.51830  26.21611 119.17842  26.16898 118.22055  57.68290 117.56042
       1  41.90266 117.41174         21.24263  -1.200000  57.68290 117.56042  26.16898 118.22055  26.12261 117.26320  57.63653 116.60307
       1  41.85668 116.45466         21.41199  -1.200000  57.63653 116.60307  26.12261 117.26320  26.07702 116.30638  57.59094 115.64626
       1  41.81147 115.49811         21.58134  -1.200000  57.59094 115.64626  26.07702 116.30638  26.03219 115.35009  57.54611 114.68997
       1  41.76703 114.54208         21.75070  -1.200000  57.54611 114.68997  26.03219 115.35009  25.98814 114.39433  57.50206 113.73421
       1  41.72336 113.58659         21.92005  -1.200000  57.50206 113.73421  25.98814 114.39433  25.94485 113.43911  57.45877 112.77898
       1  41.68046 112.63163         22.08940  -1.200000  57.45877 112.77898  25.94485 113.43911  25.90234 112.48441  57.41626 111.82429
       1  41.63833 111.67720         22.25876  -1.200000  57.41626 111.82429  25.90234 112.48441  25.86059 111.53025  57.37452 110.87012
       1  41.59697 110.72330         22.42811  -1.200000  57.37452 110.87012  25.86059 111.53025  25.81962 110.57661  57.33354 109.91649
       1  41.55638 109.76993         22.59746  -1.200000  57.33354 109.91649  25.81962 110.57661  25.77941 109.62351  57.29334 108.96339
       1  41.51656 108.81709         22.76682  -1.200000  57.29334 108.96339  25.77941 109.62351  25.73998 108.67094  57.25390 108.01081
       1  41.47751 107.86479         22.93617  -1.200000  57.25390 108.01081  25.73998 108.67094  25.70132 107.71889  57.21524 107.05877
       1  41.43923 106.91301         23.10553  -1.200000  57.21524 107.05877  25.70132 107.71889  25.66342 106.76738  57.17734 106.10726
       1  41.40172 105.96176         23.27488  -1.200000  57.17734 106.10726  25.66342 106.76738  25.62630 105.81640  57.14022 105.15628
       1  41.36498 105.01105         23.44423  -1.200000  57.14022 105.15628  25.62630 105.81640  25.58994 104.86595  57.10386 104.20583
       1  41.32901 104.06086         23.61359  -1.200000  57.10386 104.20583  25.58994 104.86595  25.55436 103.91603  57.06828 103.25591
       1  41.29382 103.11121         23.78294  -1.200000  57.06828 103.25591  25.55436 103.91603  25.51954 102.96664  57.03347 102.30652
       1  41.25939 102.16208         23.95229  -1.200000  57.03347 102.30652  25.51954 102.96664  25.48550 102.01778  56.99942 101.35766
       1  41.22573 101.21349         24.12165  -1.200000  56.99942 101.35766  25.48550 102.01778  25.45223 101.06946  56.96615 100.40933
       1  41.19284 100.26543         24.29100  -1.200000  56.96615 100.40933  25.45223 101.06946  25.41972 100.12166  56.93364  99.46154
       1  41.16072  99.31790         24.46036  -1.200000  56.93364  99.46154  25.41972 100.12166  25.38799  99.17439  56.90191  98.51427
       1  41.12937  98.37090         24.62971  -1.200000  56.90191  98.51427  25.38799  99.17439  25.35702  98.22766  56.87094  97.56753
       1  41.09879  97.42443         24.79906  -1.200000  56.87094  97.56753  25.35702  98.22766  25.32683  97.28145  56.84075  96.62133
       1  41.06898  96.47849         24.96842  -1.200000  56.84075  96.62133  25.32683  97.28145  25.29740  96.33578  56.81133  95.67565
       1  41.03994  95.53308         25.13777  -1.200000  56.81133  95.67565  25.29740  96.33578  25.26875  95.39063  56.78267  94.73051
       1  41.01167  94.58820         25.30712  -1.200000  56.78267  94.73051  25.26875  95.39063  25.24087  94.44602  56.75479  93.78590
       1  40.98417  93.64385         25.47648  -1.200000  56.75479  93.78590  25.24087  94.44602  25.21375  93.50194  56.72767  92.84182
       1  40.95744  92.70003         25.64583  -1.200000  56.72767  92.84182  25.21375  93.50194  25.18741  92.55839  56.70133  91.89826
       1  40.93148  91.75675         25.81519  -1.200000  56.70133  91.89826  25.18741  92.55839  25.16183  91.61537  56.67575  90.95524
       1  40.90630  90.81399         25.98454  -1.200000  56.67575  90.95524  25.16183  91.61537  25.13703  90.67288  56.65095  90.01275
       1  40.88188  89.87177         26.15389  -1.200000  56.65095  90.01275  25.13703  90.67288  25.11300  89.73092  56.62692  89.07079
       1  40.85823  88.93007         26.32325  -1.200000  56.62692  89.07079  25.11300  89.73092  25.08973  88.78949  56.60365  88.12936
       1  40.83535  87.98891         26.49260  -1.200000  56.60365  88.12936  25.08973  88.78949  25.06724  87.84859  56.58116  87.18847
       1  40.81324  87.04828         26.66195  -1.200000  56.58116  87.18847  25.06724  87.84859  25.04551  86.90822  56.55943  86.24810
       1  40.79190  86.10817         26.83131  -1.200000  56.55943  86.24810  25.04551  86.90822  25.02456  85.96838  56.53848  85.30826
       1  40.77133  85.16860         27.00066  -1.200000  56.53848  85.30826  25.02456  85.96838  25.00438  85.02908  56.51830  84.36895
       1  40.75153  84.22956         27.17002  -1.200000  56.51830  84.36895  25.00438  85.02908  24.98496  84.09030  56.49888  83.43018
       1  40.73250  83.29105         27.33937  -1.200000  56.49888  83.43018  24.98496  84.09030  24.96632  83.15206  56.48024  82.49193
       1  40.71425  82.35307         27.50872  -1.200000  56.48024  82.49193  24.96632  83.15206  24.94844  82.21434  56.46237  81.55422
       1  40.69676  81.41562         27.67808  -1.200000  56.46237  81.55422  24.94844  82.21434  24.93134  81.27716  56.44526  80.61704
       1  40.68004  80.47870         27.84743  -1.200000  56.44526  80.61704  24.93134  81.27716  24.91501  80.34051  56.42893  79.68038
       1  40.66409  79.54232         28.01678  -1.200000  56.42893  79.68038  24.91501  80.34051  24.89944  79.40438  56.41336  78.74426
       1  40.64891  78.60646         28.18614  -1.200000  56.41336  78.74426  24.89944  79.40438  24.88465  78.46879  56.39857  77.80867
       1  40.63450  77.67113         28.35549  -1.200000  56.39857  77.80867  24.88465  78.46879  24.87063  77.53373  56.38455  76.87361
       1  40.62086  76.73634         28.52485  -1.200000  56.38455  76.87361  24.87063  77.53373  24.85737  76.59920  56.37129  75.93908
       1  40.60799  75.80207         28.69420  -1.200000  56.37129  75.93908  24.85737  76.59920  24.84489  75.66520  56.35881  75.00508
       1  40.59590  74.86834         28.86355  -1.200000  56.35881  75.00508  24.84489  75.66520  24.83317  74.73173  56.34710  74.07161
       1  40.58457  73.93513         29.03291  -1.200000  56.34710  74.07161  24.83317  74.73173  24.82223  73.79879  56.33615  73.13867
       1  40.57401  73.00246         29.20226  -1.200000  56.33615  73.13867  24.82223  73.79879  24.81206  72.86638  56.32598  72.20626
       1  40.56422  72.07032         29.37161  -1.200000  56.32598  72.20626  24.81206  72.86638  24.80265  71.93451  56.31658  71.27439
       1  40.55520  71.13871         29.54097  -1.200000  56.31658  71.27439  24.80265  71.93451  24.79402  71.00316  56.30794  70.34304
       1  40.54695  70.20763         29.71032  -1.200000  56.30794  70.34304  24.79402  71.00316  24.78616  70.07235  56.30008  69.41222
       1  40.53947  69.27708         29.87968  -1.200000  56.30008  69.41222  24.78616  70.07235  24.77906  69.14206  56.29298  68.48194
       1  40.53277  68.34706         30.04903  -1.200000  56.29298  68.48194  24.77906  69.14206  24.77274  68.21231  56.28666  67.55218
       1  40.52683  67.41757         30.21838  -1.200000  56.28666  67.55218  24.77274  68.21231  24.76719  67.28308  56.28111  66.62296
       1  40.52166  66.48861         30.38774  -1.200000  56.28111  66.62296  24.76719  67.28308  24.76240  66.35439  56.27632  65.69427
       1  40.51726  65.56018         30.55709  -1.200000  56.27632  65.69427  24.76240  66.35439  24.75839  65.42623  56.27231  64.76610
       1  40.51363  64.63228         30.72644  -1.200000  56.27231  64.76610  24.75839  65.42623  24.75515  64.49860  56.26907  63.83847
       1  40.51077  63.70492         30.89580  -1.200000  56.26907  63.83847  24.75515  64.49860  24.75267  63.57149  56.26659  62.91137
       1  40.50869  62.77808         31.06515  -1.200000  56.26659  62.91137  24.75267  63.57149  24.75097  62.64492  56.26489  61.98480
       1  40.50737  61.85178         31.23451  -1.200000  56.26489  61.98480  24.75097  62.64492  24.75004  61.71888  56.26396  61.05876
       1  40.50682  60.92600         31.40386  -1.200000  56.26396  61.05876  24.75004  61.71888  24.74987  60.79338  56.26379  60.13325
       1  40.50704  60.00076         31.57321  -1.200000  56.26379  60.13325  24.74987  60.79338  24.75048  59.86840  56.26440  59.20827
       1  40.50803  59.07605         31.74257  -1.200000  56.26440  59.20827  24.75048  59.86840  24.75186  58.94395  56.26578  58.28383
       1  40.50979  58.15186         31.91192  -1.200000  56.26578  58.28383  24.75186  58.94395  24.75400  58.02003  56.26792  57.35991
       1  40.51233  57.22821         32.08127  -1.200000  56.26792  57.35991  24.75400  58.02003  24.75692  57.09665  56.27084  56.43652
       1  40.51563  56.30509         32.25063  -1.200000  56.27084  56.43652  24.75692  57.09665  24.76061  56.17379  56.27453  55.51367
       1  40.51970  55.38250         32.41998  -1.200000  56.27453  55.51367  24.76061  56.17379  24.76506  55.25146  56.27899  54.59134
       1  40.52454  54.46044         32.58934  -1.200000  56.27899  54.59134  24.76506  55.25146  24.77029  54.32967  56.28421  53.66955
       1  40.53015  53.53891         32.75869  -1.200000  56.28421  53.66955  24.77029  54.32967  24.77629  53.40841  56.29021  52.74828
       1  40.53654  52.61791         32.92804  -1.200000  56.29021  52.74828  24.77629  53.40841  24.78305  52.48767  56.29698  51.82755
       1  40.54369  51.69744         33.09740  -1.200000  56.29698  51.82755  24.78305  52.48767  24.79059  51.56747  56.30451  50.90735
       1  40.55161  50.77751         33.26675  -1.200000  56.30451  50.90735  24.79059  51.56747  24.79890  50.64780  56.31282  49.98768
       1  40.56030  49.85810         33.43610  -1.200000  56.31282  49.98768  24.79890  50.64780  24.80798  49.72866  56.32190  49.06854
       1  40.56976  48.93923         33.60546  -1.200000  56.32190  49.06854  24.80798  49.72866  24.81782  48.81005  56.33174  48.14992
       1  40.58000  48.02088         33.77481  -1.200000  56.33174  48.14992  24.81782  48.81005  24.82844  47.89197  56.34236  47.23185
       1  40.59100  47.10307         33.94417  -1.200000  56.34236  47.23185  24.82844  47.89197  24.83983  46.97442  56.35375  46.31430
       1  40.60277  46.18578         34.11352  -1.200000  56.35375  46.31430  24.83983  46.97442  24.85198  46.05740  56.36591  45.39728
       1  40.61531  45.26903         34.28287  -1.200000  56.36591  45.39728  24.85198  46.05740  24.86491  45.14091  56.37883  44.48079
       1  40.62862  44.35281         34.45223  -1.200000  56.37883  44.48079  24.86491  45.14091  24.87861  44.22496  56.39253  43.56483
       1  40.64271  43.43711         34.62158  -1.200000  56.39253  43.56483  24.87861  44.22496  24.89308  43.30953  56.40700  42.64941
       1  40.65756  42.52195         34.79093  -1.200000  56.40700  42.64941  24.89308  43.30953  24.90831  42.39463  56.42223  41.73451
       1  40.67318  41.60732         34.96029  -1.200000  56.42223  41.73451  24.90831  42.39463  24.92432  41.48027  56.43824  40.82015
       1  40.68957  40.69322         35.12964  -1.200000  56.43824  40.82015  24.92432  41.48027  24.94110  40.56643  56.45502  39.90631
       1  40.70674  39.77965         35.29900  -1.200000  56.45502  39.90631  24.94110  40.56643  24.95864  39.65313  56.47257  38.99301
       1  40.72467  38.86662         35.46835  -1.200000  56.47257  38.99301  24.95864  39.65313  24.97696  38.74036  56.49088  38.08023
       1  40.74337  37.95411         35.63770  -1.200000  56.49088  38.08023  24.97696  38.74036  24.99605  37.82811  56.50997  37.16799
       1  40.76284  37.04213         35.80706  -1.200000  56.50997  37.16799  24.99605  37.82811  25.01591  36.91640  56.52983  36.25628
       1  40.78308  36.13068         35.97641  -1.200000  56.52983  36.25628  25.01591  36.91640  25.03653  36.00522  56.55046  35.34510
       1  40.80410  35.21977         36.14576  -1.200000  56.55046  35.34510  25.03653  36.00522  25.05793  35.09457  56.57185  34.43445
       1  40.82588  34.30938         36.31512  -1.200000  56.57185  34.43445  25.05793  35.09457  25.08010  34.18445  56.59402  33.52433
       1  40.84843  33.39953         36.48447  -1.200000  56.59402  33.52433  25.08010  34.18445  25.10304  33.27486  56.61696  32.61474
       1  40.87175  32.49020         36.65383  -1.200000  56.61696  32.61474  25.10304  33.27486  25.12674  32.36580  56.64067  31.70568
       1  40.89585  31.58141         36.82318  -1.200000  56.64067  31.70568  25.12674  32.36580  25.15122  31.45728  56.66514  30.79715
       1  40.92071  30.67315         36.99253  -1.200000  56.66514  30.79715  25.15122  31.45728  25.17647  30.54928  56.69039  29.88916
       1  40.94634  29.76542         37.16189  -1.200000  56.69039  29.88916  25.17647  30.54928  25.20249  29.64181  56.71641  28.98169
       1  40.97274  28.85822         37.33124  -1.200000  56.71641  28.98169  25.20249  29.64181  25.22927  28.73488  56.74320  28.07475
       1  40.99992  27.95155         37.50059  -1.200000  56.74320  28.07475  25.22927  28.73488  25.25683  27.82847  56.77075  27.16835
       1  41.02786  27.04541         37.66995  -1.200000  56.77075  27.16835  25.25683  27.82847  25.28516  26.92260  56.79908  26.26247
       1  41.05657  26.13980         37.83930  -1.200000  56.79908  26.26247  25.28516  26.92260  25.31426  26.01725  56.82818  25.35713
       1  41.08606  25.23472         38.00866  -1.200000  56.82818  25.35713  25.31426  26.01725  25.34412  25.11244  56.85805  24.45232
       1  41.11631  24.33017         38.17801  -1.200000  56.85805  24.45232  25.34412  25.11244  25.37476  24.20816  56.88868  23.54803
       1  41.14733  23.42615         38.34736  -1.200000  56.88868  23.54803  25.37476  24.20816  25.40617  23.30440  56.92009  22.64428
       1  41.17912  22.52267         38.51672  -1.200000  56.92009  22.64428  25.40617  23.30440  25.43835  22.40118  56.95227  21.74106
       1  41.21169  21.61971         38.68607  -1.200000  56.95227  21.74106  25.43835  22.40118  25.47130  21.49849  56.98522  20.83837
       1  41.24502  20.71729         38.85542  -1.200000  56.98522  20.83837  25.47130  21.49849  25.50501  20.59633  57.01893  19.93621
       1  41.27912  19.81539         39.02478  -1.200000  57.01893  19.93621  25.50501  20.59633  25.53950  19.69470  57.05342  19.03458
       1  41.31399  18.91403         39.19413  -1.200000  57.05342  19.03458  25.53950  19.69470  25.57476  18.79361  57.08868  18.13348
       1  41.34964  18.01319         39.36349  -1.200000  57.08868  18.13348  25.57476  18.79361  25.61079  17.89304  57.12471  17.23292
       1  41.38605  17.11289         39.53284  -1.200000  57.12471  17.23292  25.61079  17.89304  25.64758  16.99300  57.16151  16.33288
       1  41.42323  16.21312         39.70219  -1.200000  57.16151  16.33288  25.64758  16.99300  25.68515  16.09349  57.19907  15.43337
       1  41.46119  15.31388         39.87155  -1.200000  57.19907  15.43337  25.68515  16.09349  25.72349  15.19452  57.23741  14.53440
       1  41.49991  14.41517         40.04090  -1.200000  57.23741  14.53440  25.72349  15.19452  25.76260  14.29607  57.27652  13.63595
       1  41.53940  13.51699         40.21025  -1.200000  57.27652  13.63595  25.76260  14.29607  25.80248  13.39816  57.31640  12.73804
       1  41.57967  12.61934         40.37961  -1.200000  57.31640  12.73804  25.80248  13.39816  25.84312  12.50077  57.35705  11.84065
       1  41.62070  11.72222         40.54896  -1.200000  57.35705  11.84065  25.84312  12.50077  25.88454  11.60392  57.39846  10.94380
       1  41.66250  10.82563         40.71832  -1.200000  57.39846  10.94380  25.88454  11.60392  25.92673  10.70760  57.44065  10.04748
       1  41.70507   9.92958         40.88767  -1.200000  57.44065  10.04748  25.92673  10.70760  25.96969   9.81181  57.48361   9.15168
       1  41.74842   9.03405         41.05702  -1.200000  57.48361   9.15168  25.96969   9.81181  26.01342   8.91655  57.52734   8.25642
       1  41.79253   8.13905         41.22638  -1.200000  57.52734   8.25642  26.01342   8.91655  26.05792   8.02182  57.57184   7.36169
       1  41.83741   7.24459         41.39573  -1.200000  57.57184   7.36169  26.05792   8.02182  26.10318   7.12762  57.61711   6.46749
       1  41.88307   6.35065         41.56508  -1.200000  57.61711   6.46749  26.10318   7.12762  26.14922   6.23395  57.66314   5.57382
       1  41.92949   5.45725         41.73444  -1.200000  57.66314   5.57382  26.14922   6.23395  26.19603   5.34081  57.70995   4.68069
       1  41.97668   4.56438         41.90379  -1.200000  57.70995   4.68069  26.19603   5.34081  26.24361   4.44820  57.75753   3.78808
       1  42.02465   3.67203         42.07315  -1.200000  57.75753   3.78808  26.24361   4.44820  26.29196   3.55612  57.80588   2.89600
       1  42.07338   2.78022         42.24250  -1.200000  57.80588   2.89600  26.29196   3.55612  26.34107   2.66458  57.85500   2.00445
