\wavsamp version 5.0 (Thu May  9 10:19:35 PDT 2002)
\processing time 15:18:27 PST 12/13/2003
\character channelID = 2
| order |x_center |y_center |   wavelength   |  angle   |   x0    |   y0    |   x1    |   y1    |   x2    |   y2    |   x3    |   y3    |
| int   |  real   |  real   |    real        |   real   |  real   |  real   |  real   |  real   |  real   |  real   |  real   |  real   |
       2  78.87805  77.99987         14.04510  -1.200000  96.85991  78.07576  60.86780  78.82968  60.89528  77.92398  96.88739  77.17005
       2  78.90375  77.09416         14.12978  -1.200000  96.88739  77.17005  60.89528  77.92398  60.91928  77.01827  96.91138  76.26434
       2  78.92608  76.18845         14.21445  -1.200000  96.91138  76.26434  60.91928  77.01827  60.93999  76.11256  96.93210  75.35863
       2  78.94524  75.28274         14.29913  -1.200000  96.93210  75.35863  60.93999  76.11256  60.95764  75.20685  96.94975  74.45292
       2  78.96144  74.37703         14.38381  -1.200000  96.94975  74.45292  60.95764  75.20685  60.97244  74.30114  96.96454  73.54722
       2  78.97488  73.47133         14.46848  -1.200000  96.96454  73.54722  60.97244  74.30114  60.98458  73.39543  96.97668  72.64151
       2  78.98577  72.56562         14.55316  -1.200000  96.97668  72.64151  60.98458  73.39543  60.99426  72.48973  96.98636  71.73580
       2  78.99429  71.65991         14.63784  -1.200000  96.98636  71.73580  60.99426  72.48973  61.00167  71.58402  96.99378  70.83009
       2  79.00064  70.75420         14.72251  -1.200000  96.99378  70.83009  61.00167  71.58402  61.00700  70.67831  96.99911  69.92438
       2  79.00500  69.84849         14.80719  -1.200000  96.99911  69.92438  61.00700  70.67831  61.01044  69.77260  97.00255  69.01867
       2  79.00756  68.94278         14.89187  -1.200000  97.00255  69.01867  61.01044  69.77260  61.01216  68.86689  97.00426  68.11297
       2  79.00848  68.03708         14.97655  -1.200000  97.00426  68.11297  61.01216  68.86689  61.01233  67.96119  97.00443  67.20726
       2  79.00794  67.13137         15.06122  -1.200000  97.00443  67.20726  61.01233  67.96119  61.01112  67.05548  97.00323  66.30155
       2  79.00610  66.22566         15.14590  -1.200000  97.00323  66.30155  61.01112  67.05548  61.00870  66.14977  97.00080  65.39584
       2  79.00314  65.31995         15.23058  -1.200000  97.00080  65.39584  61.00870  66.14977  61.00522  65.24406  96.99733  64.49013
       2  78.99919  64.41424         15.31525  -1.200000  96.99733  64.49013  61.00522  65.24406  61.00085  64.33835  96.99295  63.58442
       2  78.99442  63.50853         15.39993  -1.200000  96.99295  63.58442  61.00085  64.33835  60.99572  63.43264  96.98782  62.67872
       2  78.98897  62.60283         15.48461  -1.200000  96.98782  62.67872  60.99572  63.43264  60.98998  62.52694  96.98209  61.77301
       2  78.98298  61.69712         15.56928  -1.200000  96.98209  61.77301  60.98998  62.52694  60.98378  61.62123  96.97589  60.86730
       2  78.97660  60.79141         15.65396  -1.200000  96.97589  60.86730  60.98378  61.62123  60.97725  60.71552  96.96935  59.96159
       2  78.96995  59.88570         15.73864  -1.200000  96.96935  59.96159  60.97725  60.71552  60.97051  59.80981  96.96262  59.05588
       2  78.96316  58.97999         15.82331  -1.200000  96.96262  59.05588  60.97051  59.80981  60.96370  58.90410  96.95581  58.15017
       2  78.95636  58.07428         15.90799  -1.200000  96.95581  58.15017  60.96370  58.90410  60.95694  57.99839  96.94904  57.24447
       2  78.94966  57.16858         15.99267  -1.200000  96.94904  57.24447  60.95694  57.99839  60.95033  57.09269  96.94244  56.33876
       2  78.94318  56.26287         16.07734  -1.200000  96.94244  56.33876  60.95033  57.09269  60.94400  56.18698  96.93611  55.43305
       2  78.93703  55.35716         16.16202  -1.200000  96.93611  55.43305  60.94400  56.18698  60.93805  55.28127  96.93016  54.52734
       2  78.93131  54.45145         16.24670  -1.200000  96.93016  54.52734  60.93805  55.28127  60.93259  54.37556  96.92469  53.62163
       2  78.92612  53.54574         16.33138  -1.200000  96.92469  53.62163  60.93259  54.37556  60.92770  53.46985  96.91980  52.71592
       2  78.92156  52.64003         16.41605  -1.200000  96.91980  52.71592  60.92770  53.46985  60.92348  52.56414  96.91559  51.81022
       2  78.91771  51.73433         16.50073  -1.200000  96.91559  51.81022  60.92348  52.56414  60.92003  51.65844  96.91213  50.90451
       2  78.91466  50.82862         16.58541  -1.200000  96.91213  50.90451  60.92003  51.65844  60.91742  50.75273  96.90952  49.99880
       2  78.91250  49.92291         16.67008  -1.200000  96.90952  49.99880  60.91742  50.75273  60.91573  49.84702  96.90783  49.09309
       2  78.91130  49.01720         16.75476  -1.200000  96.90783  49.09309  60.91573  49.84702  60.91503  48.94131  96.90713  48.18738
       2  78.91113  48.11149         16.83944  -1.200000  96.90713  48.18738  60.91503  48.94131  60.91540  48.03560  96.90750  47.28167
       2  78.91205  47.20578         16.92411  -1.200000  96.90750  47.28167  60.91540  48.03560  60.91689  47.12989  96.90900  46.37597
       2  78.91414  46.30008         17.00879  -1.200000  96.90900  46.37597  60.91689  47.12989  60.91958  46.22419  96.91168  45.47026
       2  78.91743  45.39437         17.09347  -1.200000  96.91168  45.47026  60.91958  46.22419  60.92350  45.31848  96.91561  44.56455
       2  78.92200  44.48866         17.17814  -1.200000  96.91561  44.56455  60.92350  45.31848  60.92872  44.41277  96.92082  43.65884
       2  78.92788  43.58295         17.26282  -1.200000  96.92082  43.65884  60.92872  44.41277  60.93527  43.50706  96.92738  42.75313
       2  78.93512  42.67724         17.34750  -1.200000  96.92738  42.75313  60.93527  43.50706  60.94321  42.60135  96.93531  41.84742
       2  78.94375  41.77153         17.43217  -1.200000  96.93531  41.84742  60.94321  42.60135  60.95255  41.69564  96.94466  40.94172
       2  78.95382  40.86583         17.51685  -1.200000  96.94466  40.94172  60.95255  41.69564  60.96334  40.78994  96.95545  40.03601
       2  78.96534  39.96012         17.60153  -1.200000  96.95545  40.03601  60.96334  40.78994  60.97560  39.88423  96.96771  39.13030
       2  78.97834  39.05441         17.68621  -1.200000  96.96771  39.13030  60.97560  39.88423  60.98935  38.97852  96.98146  38.22459
       2  78.99285  38.14870         17.77088  -1.200000  96.98146  38.22459  60.98935  38.97852  61.00461  38.07281  96.99672  37.31888
       2  79.00887  37.24299         17.85556  -1.200000  96.99672  37.31888  61.00461  38.07281  61.02140  37.16710  97.01350  36.41317
       2  79.02641  36.33728         17.94024  -1.200000  97.01350  36.41317  61.02140  37.16710  61.03971  36.26139  97.03181  35.50747
       2  79.04549  35.43158         18.02491  -1.200000  97.03181  35.50747  61.03971  36.26139  61.05955  35.35569  97.05165  34.60176
       2  79.06609  34.52587         18.10959  -1.200000  97.05165  34.60176  61.05955  35.35569  61.08091  34.44998  97.07302  33.69605
       2  79.08822  33.62016         18.19427  -1.200000  97.07302  33.69605  61.08091  34.44998  61.10380  33.54427  97.09591  32.79034
       2  79.11187  32.71445         18.27894  -1.200000  97.09591  32.79034  61.10380  33.54427  61.12820  32.63856  97.12031  31.88463
       2  79.13702  31.80874         18.36362  -1.200000  97.12031  31.88463  61.12820  32.63856  61.15410  31.73285  97.14620  30.97892
       2  79.16365  30.90303         18.44830  -1.200000  97.14620  30.97892  61.15410  31.73285  61.18146  30.82714  97.17356  30.07322
       2  79.19174  29.99733         18.53297  -1.200000  97.17356  30.07322  61.18146  30.82714  61.21027  29.92144  97.20238  29.16751
       2  79.22126  29.09162         18.61765  -1.200000  97.20238  29.16751  61.21027  29.92144  61.24050  29.01573  97.23260  28.26180
       2  79.25218  28.18591         18.70233  -1.200000  97.23260  28.26180  61.24050  29.01573  61.27210  28.11002  97.26421  27.35609
       2  79.28446  27.28020         18.78700  -1.200000  97.26421  27.35609  61.27210  28.11002  61.30505  27.20431  97.29715  26.45038
       2  79.31806  26.37449         18.87168  -1.200000  97.29715  26.45038  61.30505  27.20431  61.33929  26.29860  97.33140  25.54467
       2  79.35293  25.46878         18.95636  -1.200000  97.33140  25.54467  61.33929  26.29860  61.37478  25.39289  97.36688  24.63897
       2  79.38902  24.56308         19.04104  -1.200000  97.36688  24.63897  61.37478  25.39289  61.41146  24.48719  97.40356  23.73326
       2  79.42628  23.65737         19.12571  -1.200000  97.40356  23.73326  61.41146  24.48719  61.44927  23.58148  97.44137  22.82755
       2  79.46463  22.75166         19.21039  -1.200000  97.44137  22.82755  61.44927  23.58148  61.48814  22.67577  97.48025  21.92184
       2  79.50402  21.84595         19.29507  -1.200000  97.48025  21.92184  61.48814  22.67577  61.52802  21.77006  97.52013  21.01613
       2  79.54437  20.94024         19.37974  -1.200000  97.52013  21.01613  61.52802  21.77006  61.56883  20.86435  97.56093  20.11043
       2  79.58561  20.03453         19.46442  -1.200000  97.56093  20.11043  61.56883  20.86435  61.61048  19.95864  97.60258  19.20472
       2  79.62765  19.12883         19.54910  -1.200000  97.60258  19.20472  61.61048  19.95864  61.65290  19.05294  97.64500  18.29901
       2  79.67042  18.22312         19.63377  -1.200000  97.64500  18.29901  61.65290  19.05294  61.69600  18.14723  97.68810  17.39330
       2  79.71382  17.31741         19.71845  -1.200000  97.68810  17.39330  61.69600  18.14723  61.73968  17.24152  97.73178  16.48759
       2  79.75776  16.41170         19.80313  -1.200000  97.73178  16.48759  61.73968  17.24152  61.78385  16.33581  97.77595  15.58188
       2  79.80214  15.50599         19.88780  -1.200000  97.77595  15.58188  61.78385  16.33581  61.82841  15.43010  97.82051  14.67618
       2  79.84685  14.60028         19.97248  -1.200000  97.82051  14.67618  61.82841  15.43010  61.87325  14.52439  97.86535  13.77047
       2  79.89179  13.69458         20.05716  -1.200000  97.86535  13.77047  61.87325  14.52439  61.91825  13.61869  97.91036  12.86476
       2  79.93684  12.78887         20.14183  -1.200000  97.91036  12.86476  61.91825  13.61869  61.96332  12.71298  97.95542  11.95905
       2  79.98188  11.88316         20.22651  -1.200000  97.95542  11.95905  61.96332  12.71298  62.00831  11.80727  98.00041  11.05334
       2  80.02679  10.97745         20.31119  -1.200000  98.00041  11.05334  62.00831  11.80727  62.05311  10.90156  98.04522  10.14763
       2  80.07145  10.07174         20.39587  -1.200000  98.04522  10.14763  62.05311  10.90156  62.09759   9.99585  98.08969   9.24193
       2  80.11572   9.16603         20.48054  -1.200000  98.08969   9.24193  62.09759   9.99585  62.14161   9.09014  98.13372   8.33622
       2  80.15946   8.26033         20.56522  -1.200000  98.13372   8.33622  62.14161   9.09014  62.18503   8.18444  98.17714   7.43051
       2  80.20253   7.35462         20.64990  -1.200000  98.17714   7.43051  62.18503   8.18444  62.22772   7.27873  98.21982   6.52480
       2  80.24478   6.44891         20.73457  -1.200000  98.21982   6.52480  62.22772   7.27873  62.26951   6.37302  98.26161   5.61909
       2  80.28607   5.54320         20.81925  -1.200000  98.26161   5.61909  62.26951   6.37302  62.31025   5.46731  98.30236   4.71338
       2  80.32624   4.63749         20.90393  -1.200000  98.30236   4.71338  62.31025   5.46731  62.34979   4.56160  98.34190   3.80768
       2  80.36512   3.73178         20.98860  -1.200000  98.34190   3.80768  62.34979   4.56160  62.38797   3.65589  98.38007   2.90197
       2  80.40255   2.82608         21.07328  -1.200000  98.38007   2.90197  62.38797   3.65589  62.42461   2.75019  98.41672   1.99626
       2  80.43835   1.92037         21.15796  -1.200000  98.41672   1.99626  62.42461   2.75019  62.45954   1.84448  98.45165   1.09055
       2  80.47237   1.01466         21.24263  -1.200000  98.45165   1.09055  62.45954   1.84448  62.49259   0.93877  98.48470   0.18484
       2  80.50440   0.10895         21.32731  -1.200000  98.48470   0.18484  62.49259   0.93877  62.52357   0.03306  98.51568  -0.72087
       3  81.31724 127.86404         19.37974  -1.200000  99.31763 127.71971  63.32553 128.47363  63.31651 128.00838  99.30862 127.25445
       3  81.30755 127.39878         19.46442  -1.200000  99.30862 127.25445  63.31651 128.00838  63.30614 127.54312  99.29824 126.78919
       3  81.29650 126.93353         19.54910  -1.200000  99.29824 126.78919  63.30614 127.54312  63.29441 127.07786  99.28651 126.32393
       3  81.28408 126.46827         19.63377  -1.200000  99.28651 126.32393  63.29441 127.07786  63.28131 126.61260  99.27342 125.85868
       3  81.27031 126.00301         19.71845  -1.200000  99.27342 125.85868  63.28131 126.61260  63.26686 126.14735  99.25897 125.39342
       3  81.25518 125.53776         19.80313  -1.200000  99.25897 125.39342  63.26686 126.14735  63.25105 125.68209  99.24316 124.92816
       3  81.23869 125.07250         19.88780  -1.200000  99.24316 124.92816  63.25105 125.68209  63.23389 125.21683  99.22599 124.46291
       3  81.22084 124.60724         19.97248  -1.200000  99.22599 124.46291  63.23389 125.21683  63.21536 124.75158  99.20746 123.99765
       3  81.20164 124.14199         20.05716  -1.200000  99.20746 123.99765  63.21536 124.75158  63.19547 124.28632  99.18758 123.53239
       3  81.18107 123.67673         20.14183  -1.200000  99.18758 123.53239  63.19547 124.28632  63.17423 123.82106  99.16633 123.06714
       3  81.15915 123.21147         20.22651  -1.200000  99.16633 123.06714  63.17423 123.82106  63.15162 123.35581  99.14373 122.60188
       3  81.13586 122.74621         20.31119  -1.200000  99.14373 122.60188  63.15162 123.35581  63.12766 122.89055  99.11976 122.13662
       3  81.11122 122.28096         20.39587  -1.200000  99.11976 122.13662  63.12766 122.89055  63.10234 122.42529  99.09444 121.67137
       3  81.08522 121.81570         20.48054  -1.200000  99.09444 121.67137  63.10234 122.42529  63.07565 121.96004  99.06776 121.20611
       3  81.05786 121.35044         20.56522  -1.200000  99.06776 121.20611  63.07565 121.96004  63.04761 121.49478  99.03972 120.74085
       3  81.02914 120.88519         20.64990  -1.200000  99.03972 120.74085  63.04761 121.49478  63.01822 121.02952  99.01032 120.27559
       3  80.99906 120.41993         20.73457  -1.200000  99.01032 120.27559  63.01822 121.02952  62.98746 120.56426  98.97956 119.81034
       3  80.96762 119.95467         20.81925  -1.200000  98.97956 119.81034  62.98746 120.56426  62.95534 120.09901  98.94744 119.34508
       3  80.93482 119.48942         20.90393  -1.200000  98.94744 119.34508  62.95534 120.09901  62.92186 119.63375  98.91397 118.87982
       3  80.90067 119.02416         20.98860  -1.200000  98.91397 118.87982  62.92186 119.63375  62.88703 119.16849  98.87913 118.41457
       3  80.86515 118.55890         21.07328  -1.200000  98.87913 118.41457  62.88703 119.16849  62.85084 118.70324  98.84294 117.94931
       3  80.82828 118.09365         21.15796  -1.200000  98.84294 117.94931  62.85084 118.70324  62.81328 118.23798  98.80539 117.48405
       3  80.79005 117.62839         21.24263  -1.200000  98.80539 117.48405  62.81328 118.23798  62.77437 117.77272  98.76648 117.01880
       3  80.75046 117.16313         21.32731  -1.200000  98.76648 117.01880  62.77437 117.77272  62.73410 117.30747  98.72621 116.55354
       3  80.70951 116.69787         21.41199  -1.200000  98.72621 116.55354  62.73410 117.30747  62.69247 116.84221  98.68458 116.08828
       3  80.66720 116.23262         21.49666  -1.200000  98.68458 116.08828  62.69247 116.84221  62.64948 116.37695  98.64159 115.62303
       3  80.62353 115.76736         21.58134  -1.200000  98.64159 115.62303  62.64948 116.37695  62.60513 115.91170  98.59724 115.15777
       3  80.57850 115.30210         21.66602  -1.200000  98.59724 115.15777  62.60513 115.91170  62.55943 115.44644  98.55153 114.69251
       1  42.41555 127.68983         19.54910  -1.200000  60.43876 127.78820  24.44665 128.54212  24.39253 127.59146  60.38463 126.83754
       1  42.36181 126.73917         19.71845  -1.200000  60.38463 126.83754  24.39253 127.59146  24.33917 126.64080  60.33128 125.88687
       1  42.30883 125.78851         19.88780  -1.200000  60.33128 125.88687  24.33917 126.64080  24.28658 125.69014  60.27869 124.93621
       1  42.25663 124.83785         20.05716  -1.200000  60.27869 124.93621  24.28658 125.69014  24.23476 124.73948  60.22687 123.98555
       1  42.20519 123.88718         20.22651  -1.200000  60.22687 123.98555  24.23476 124.73948  24.18371 123.78882  60.17581 123.03489
       1  42.15452 122.93652         20.39587  -1.200000  60.17581 123.03489  24.18371 123.78882  24.13342 122.83816  60.12552 122.08423
       1  42.10461 121.98586         20.56522  -1.200000  60.12552 122.08423  24.13342 122.83816  24.08390 121.88749  60.07600 121.13357
       1  42.05548 121.03520         20.73457  -1.200000  60.07600 121.13357  24.08390 121.88749  24.03514 120.93683  60.02725 120.18291
       1  42.00711 120.08454         20.90393  -1.200000  60.02725 120.18291  24.03514 120.93683  23.98716 119.98617  59.97926 119.23225
       1  41.95951 119.13388         21.07328  -1.200000  59.97926 119.23225  23.98716 119.98617  23.93994 119.03551  59.93205 118.28158
       1  41.91267 118.18322         21.24263  -1.200000  59.93205 118.28158  23.93994 119.03551  23.89349 118.08485  59.88559 117.33092
       1  41.86660 117.23256         21.41199  -1.200000  59.88559 117.33092  23.89349 118.08485  23.84781 117.13419  59.83991 116.38026
       1  41.82131 116.28189         21.58134  -1.200000  59.83991 116.38026  23.84781 117.13419  23.80289 116.18353  59.79500 115.42960
       1  41.77677 115.33123         21.75070  -1.200000  59.79500 115.42960  23.80289 116.18353  23.75874 115.23287  59.75085 114.47894
       1  41.73301 114.38057         21.92005  -1.200000  59.75085 114.47894  23.75874 115.23287  23.71536 114.28220  59.70747 113.52828
       1  41.69001 113.42991         22.08940  -1.200000  59.70747 113.52828  23.71536 114.28220  23.67275 113.33154  59.66485 112.57762
       1  41.64778 112.47925         22.25876  -1.200000  59.66485 112.57762  23.67275 113.33154  23.63090 112.38088  59.62301 111.62695
       1  41.60632 111.52859         22.42811  -1.200000  59.62301 111.62695  23.63090 112.38088  23.58982 111.43022  59.58193 110.67629
       1  41.56562 110.57793         22.59746  -1.200000  59.58193 110.67629  23.58982 111.43022  23.54951 110.47956  59.54161 109.72563
       1  41.52569 109.62726         22.76682  -1.200000  59.54161 109.72563  23.54951 110.47956  23.50997 109.52890  59.50207 108.77497
       1  41.48653 108.67660         22.93617  -1.200000  59.50207 108.77497  23.50997 109.52890  23.47119 108.57824  59.46329 107.82431
       1  41.44814 107.72594         23.10553  -1.200000  59.46329 107.82431  23.47119 108.57824  23.43318 107.62758  59.42528 106.87365
       1  41.41051 106.77528         23.27488  -1.200000  59.42528 106.87365  23.43318 107.62758  23.39594 106.67691  59.38804 105.92299
       1  41.37366 105.82462         23.44423  -1.200000  59.38804 105.92299  23.39594 106.67691  23.35946 105.72625  59.35157 104.97233
       1  41.33756 104.87396         23.61359  -1.200000  59.35157 104.97233  23.35946 105.72625  23.32375 104.77559  59.31586 104.02166
       1  41.30224 103.92330         23.78294  -1.200000  59.31586 104.02166  23.32375 104.77559  23.28881 103.82493  59.28092 103.07100
       1  41.26768 102.97264         23.95229  -1.200000  59.28092 103.07100  23.28881 103.82493  23.25464 102.87427  59.24675 102.12034
       1  41.23390 102.02197         24.12165  -1.200000  59.24675 102.12034  23.25464 102.87427  23.22124 101.92361  59.21334 101.16968
       1  41.20087 101.07131         24.29100  -1.200000  59.21334 101.16968  23.22124 101.92361  23.18860 100.97295  59.18070 100.21902
       1  41.16862 100.12065         24.46036  -1.200000  59.18070 100.21902  23.18860 100.97295  23.15673 100.02228  59.14883  99.26836
       1  41.13713  99.16999         24.62971  -1.200000  59.14883  99.26836  23.15673 100.02228  23.12562  99.07162  59.11773  98.31770
       1  41.10641  98.21933         24.79906  -1.200000  59.11773  98.31770  23.12562  99.07162  23.09529  98.12096  59.08739  97.36703
       1  41.07646  97.26867         24.96842  -1.200000  59.08739  97.36703  23.09529  98.12096  23.06572  97.17030  59.05783  96.41637
       1  41.04728  96.31801         25.13777  -1.200000  59.05783  96.41637  23.06572  97.17030  23.03692  96.21964  59.02902  95.46571
       1  41.01886  95.36734         25.30712  -1.200000  59.02902  95.46571  23.03692  96.21964  23.00889  95.26898  59.00099  94.51505
       1  40.99121  94.41668         25.47648  -1.200000  59.00099  94.51505  23.00889  95.26898  22.98162  94.31832  58.97372  93.56439
       1  40.96433  93.46602         25.64583  -1.200000  58.97372  93.56439  22.98162  94.31832  22.95512  93.36766  58.94723  92.61373
       1  40.93821  92.51536         25.81519  -1.200000  58.94723  92.61373  22.95512  93.36766  22.92939  92.41699  58.92149  91.66307
       1  40.91286  91.56470         25.98454  -1.200000  58.92149  91.66307  22.92939  92.41699  22.90443  91.46633  58.89653  90.71241
       1  40.88828  90.61404         26.15389  -1.200000  58.89653  90.71241  22.90443  91.46633  22.88023  90.51567  58.87233  89.76174
       1  40.86447  89.66338         26.32325  -1.200000  58.87233  89.76174  22.88023  90.51567  22.85680  89.56501  58.84890  88.81108
       1  40.84142  88.71272         26.49260  -1.200000  58.84890  88.81108  22.85680  89.56501  22.83414  88.61435  58.82624  87.86042
       1  40.81915  87.76205         26.66195  -1.200000  58.82624  87.86042  22.83414  88.61435  22.81224  87.66369  58.80435  86.90976
       1  40.79764  86.81139         26.83131  -1.200000  58.80435  86.90976  22.81224  87.66369  22.79112  86.71303  58.78322  85.95910
       1  40.77689  85.86073         27.00066  -1.200000  58.78322  85.95910  22.79112  86.71303  22.77076  85.76236  58.76286  85.00844
       1  40.75692  84.91007         27.17002  -1.200000  58.76286  85.00844  22.77076  85.76236  22.75116  84.81170  58.74327  84.05778
       1  40.73771  83.95941         27.33937  -1.200000  58.74327  84.05778  22.75116  84.81170  22.73234  83.86104  58.72444  83.10711
       1  40.71927  83.00875         27.50872  -1.200000  58.72444  83.10711  22.73234  83.86104  22.71428  82.91038  58.70638  82.15645
       1  40.70159  82.05809         27.67808  -1.200000  58.70638  82.15645  22.71428  82.91038  22.69699  81.95972  58.68909  81.20579
       1  40.68468  81.10742         27.84743  -1.200000  58.68909  81.20579  22.69699  81.95972  22.68047  81.00906  58.67257  80.25513
       1  40.66855  80.15676         28.01678  -1.200000  58.67257  80.25513  22.68047  81.00906  22.66471  80.05840  58.65682  79.30447
       1  40.65317  79.20610         28.18614  -1.200000  58.65682  79.30447  22.66471  80.05840  22.64972  79.10774  58.64183  78.35381
       1  40.63857  78.25544         28.35549  -1.200000  58.64183  78.35381  22.64972  79.10774  22.63550  78.15707  58.62761  77.40315
       1  40.62473  77.30478         28.52485  -1.200000  58.62761  77.40315  22.63550  78.15707  22.62205  77.20641  58.61415  76.45249
       1  40.61166  76.35412         28.69420  -1.200000  58.61415  76.45249  22.62205  77.20641  22.60936  76.25575  58.60147  75.50182
       1  40.59936  75.40346         28.86355  -1.200000  58.60147  75.50182  22.60936  76.25575  22.59744  75.30509  58.58955  74.55116
       1  40.58782  74.45280         29.03291  -1.200000  58.58955  74.55116  22.59744  75.30509  22.58629  74.35443  58.57840  73.60050
       1  40.57706  73.50213         29.20226  -1.200000  58.57840  73.60050  22.58629  74.35443  22.57591  73.40377  58.56801  72.64984
       1  40.56706  72.55147         29.37161  -1.200000  58.56801  72.64984  22.57591  73.40377  22.56629  72.45311  58.55840  71.69918
       1  40.55782  71.60081         29.54097  -1.200000  58.55840  71.69918  22.56629  72.45311  22.55744  71.50244  58.54955  70.74852
       1  40.54936  70.65015         29.71032  -1.200000  58.54955  70.74852  22.55744  71.50244  22.54936  70.55178  58.54147  69.79786
       1  40.54166  69.69949         29.87968  -1.200000  58.54147  69.79786  22.54936  70.55178  22.54205  69.60112  58.53415  68.84719
       1  40.53473  68.74883         30.04903  -1.200000  58.53415  68.84719  22.54205  69.60112  22.53550  68.65046  58.52760  67.89653
       1  40.52857  67.79817         30.21838  -1.200000  58.52760  67.89653  22.53550  68.65046  22.52972  67.69980  58.52183  66.94587
       1  40.52317  66.84750         30.38774  -1.200000  58.52183  66.94587  22.52972  67.69980  22.52471  66.74914  58.51681  65.99521
       1  40.51854  65.89684         30.55709  -1.200000  58.51681  65.99521  22.52471  66.74914  22.52046  65.79848  58.51257  65.04455
       1  40.51468  64.94618         30.72644  -1.200000  58.51257  65.04455  22.52046  65.79848  22.51699  64.84782  58.50909  64.09389
       1  40.51159  63.99552         30.89580  -1.200000  58.50909  64.09389  22.51699  64.84782  22.51428  63.89715  58.50638  63.14323
       1  40.50926  63.04486         31.06515  -1.200000  58.50638  63.14323  22.51428  63.89715  22.51233  62.94649  58.50444  62.19257
       1  40.50770  62.09420         31.23451  -1.200000  58.50444  62.19257  22.51233  62.94649  22.51116  61.99583  58.50326  61.24190
       1  40.50691  61.14354         31.40386  -1.200000  58.50326  61.24190  22.51116  61.99583  22.51075  61.04517  58.50285  60.29124
       1  40.50689  60.19288         31.57321  -1.200000  58.50285  60.29124  22.51075  61.04517  22.51111  60.09451  58.50321  59.34058
       1  40.50763  59.24221         31.74257  -1.200000  58.50321  59.34058  22.51111  60.09451  22.51224  59.14385  58.50434  58.38992
       1  40.50914  58.29155         31.91192  -1.200000  58.50434  58.38992  22.51224  59.14385  22.51413  58.19319  58.50623  57.43926
       1  40.51142  57.34089         32.08127  -1.200000  58.50623  57.43926  22.51413  58.19319  22.51679  57.24252  58.50890  56.48860
       1  40.51446  56.39023         32.25063  -1.200000  58.50890  56.48860  22.51679  57.24252  22.52022  56.29186  58.51233  55.53794
       1  40.51828  55.43957         32.41998  -1.200000  58.51233  55.53794  22.52022  56.29186  22.52442  55.34120  58.51652  54.58727
       1  40.52286  54.48891         32.58934  -1.200000  58.51652  54.58727  22.52442  55.34120  22.52938  54.39054  58.52149  53.63661
       1  40.52820  53.53825         32.75869  -1.200000  58.52149  53.63661  22.52938  54.39054  22.53511  53.43988  58.52722  52.68595
       1  40.53432  52.58758         32.92804  -1.200000  58.52722  52.68595  22.53511  53.43988  22.54161  52.48922  58.53371  51.73529
       1  40.54120  51.63692         33.09740  -1.200000  58.53371  51.73529  22.54161  52.48922  22.54888  51.53856  58.54098  50.78463
       1  40.54885  50.68626         33.26675  -1.200000  58.54098  50.78463  22.54888  51.53856  22.55691  50.58790  58.54901  49.83397
       1  40.55727  49.73560         33.43610  -1.200000  58.54901  49.83397  22.55691  50.58790  22.56571  49.63723  58.55781  48.88331
       1  40.56645  48.78494         33.60546  -1.200000  58.55781  48.88331  22.56571  49.63723  22.57528  48.68657  58.56738  47.93265
       1  40.57640  47.83428         33.77481  -1.200000  58.56738  47.93265  22.57528  48.68657  22.58561  47.73591  58.57772  46.98198
       1  40.58712  46.88362         33.94417  -1.200000  58.57772  46.98198  22.58561  47.73591  22.59672  46.78525  58.58882  46.03132
       1  40.59861  45.93296         34.11352  -1.200000  58.58882  46.03132  22.59672  46.78525  22.60859  45.83459  58.60069  45.08066
       1  40.61086  44.98229         34.28287  -1.200000  58.60069  45.08066  22.60859  45.83459  22.62122  44.88393  58.61333  44.13000
       1  40.62388  44.03163         34.45223  -1.200000  58.61333  44.13000  22.62122  44.88393  22.63463  43.93327  58.62673  43.17934
       1  40.63767  43.08097         34.62158  -1.200000  58.62673  43.17934  22.63463  43.93327  22.64880  42.98260  58.64090  42.22868
       1  40.65223  42.13031         34.79093  -1.200000  58.64090  42.22868  22.64880  42.98260  22.66374  42.03194  58.65584  41.27802
       1  40.66755  41.17965         34.96029  -1.200000  58.65584  41.27802  22.66374  42.03194  22.67945  41.08128  58.67155  40.32735
       1  40.68364  40.22899         35.12964  -1.200000  58.67155  40.32735  22.67945  41.08128  22.69592  40.13062  58.68803  39.37669
       1  40.70050  39.27833         35.29900  -1.200000  58.68803  39.37669  22.69592  40.13062  22.71316  39.17996  58.70527  38.42603
       1  40.71812  38.32767         35.46835  -1.200000  58.70527  38.42603  22.71316  39.17996  22.73117  38.22930  58.72328  37.47537
       1  40.73652  37.37700         35.63770  -1.200000  58.72328  37.47537  22.73117  38.22930  22.74995  37.27864  58.74205  36.52471
       1  40.75568  36.42634         35.80706  -1.200000  58.74205  36.52471  22.74995  37.27864  22.76949  36.32798  58.76160  35.57405
       1  40.77560  35.47568         35.97641  -1.200000  58.76160  35.57405  22.76949  36.32798  22.78980  35.37731  58.78191  34.62339
       1  40.79630  34.52502         36.14576  -1.200000  58.78191  34.62339  22.78980  35.37731  22.81088  34.42665  58.80299  33.67273
       1  40.81776  33.57436         36.31512  -1.200000  58.80299  33.67273  22.81088  34.42665  22.83273  33.47599  58.82483  32.72206
       1  40.83999  32.62370         36.48447  -1.200000  58.82483  32.72206  22.83273  33.47599  22.85534  32.52533  58.84745  31.77140
       1  40.86299  31.67304         36.65383  -1.200000  58.84745  31.77140  22.85534  32.52533  22.87872  31.57467  58.87083  30.82074
       1  40.88675  30.72237         36.82318  -1.200000  58.87083  30.82074  22.87872  31.57467  22.90287  30.62401  58.89498  29.87008
       1  40.91129  29.77171         36.99253  -1.200000  58.89498  29.87008  22.90287  30.62401  22.92779  29.67335  58.91989  28.91942
       1  40.93658  28.82105         37.16189  -1.200000  58.91989  28.91942  22.92779  29.67335  22.95347  28.72268  58.94557  27.96876
       1  40.96265  27.87039         37.33124  -1.200000  58.94557  27.96876  22.95347  28.72268  22.97992  27.77202  58.97202  27.01810
       1  40.98949  26.91973         37.50059  -1.200000  58.97202  27.01810  22.97992  27.77202  23.00714  26.82136  58.99924  26.06743
       1  41.01709  25.96907         37.66995  -1.200000  58.99924  26.06743  23.00714  26.82136  23.03512  25.87070  59.02723  25.11677
       1  41.04546  25.01841         37.83930  -1.200000  59.02723  25.11677  23.03512  25.87070  23.06388  24.92004  59.05598  24.16611
       1  41.07459  24.06775         38.00866  -1.200000  59.05598  24.16611  23.06388  24.92004  23.09339  23.96938  59.08550  23.21545
       1  41.10449  23.11708         38.17801  -1.200000  59.08550  23.21545  23.09339  23.96938  23.12368  23.01872  59.11579  22.26479
       1  41.13517  22.16642         38.34736  -1.200000  59.11579  22.26479  23.12368  23.01872  23.15474  22.06806  59.14684  21.31413
       1  41.16660  21.21576         38.51672  -1.200000  59.14684  21.31413  23.15474  22.06806  23.18656  21.11739  59.17866  20.36347
       1  41.19881  20.26510         38.68607  -1.200000  59.17866  20.36347  23.18656  21.11739  23.21915  20.16673  59.21125  19.41281
       1  41.23178  19.31444         38.85542  -1.200000  59.21125  19.41281  23.21915  20.16673  23.25250  19.21607  59.24461  18.46214
       1  41.26552  18.36378         39.02478  -1.200000  59.24461  18.46214  23.25250  19.21607  23.28663  18.26541  59.27873  17.51148
       1  41.30003  17.41312         39.19413  -1.200000  59.27873  17.51148  23.28663  18.26541  23.32152  17.31475  59.31363  16.56082
       1  41.33531  16.46245         39.36349  -1.200000  59.31363  16.56082  23.32152  17.31475  23.35718  16.36409  59.34928  15.61016
       1  41.37135  15.51179         39.53284  -1.200000  59.34928  15.61016  23.35718  16.36409  23.39361  15.41343  59.38571  14.65950
       1  41.40816  14.56113         39.70219  -1.200000  59.38571  14.65950  23.39361  15.41343  23.43080  14.46276  59.42290  13.70884
       1  41.44574  13.61047         39.87155  -1.200000  59.42290  13.70884  23.43080  14.46276  23.46876  13.51210  59.46086  12.75818
       1  41.48408  12.65981         40.04090  -1.200000  59.46086  12.75818  23.46876  13.51210  23.50749  12.56144  59.49959  11.80751
       1  41.52319  11.70915         40.21025  -1.200000  59.49959  11.80751  23.50749  12.56144  23.54698  11.61078  59.53909  10.85685
       1  41.56307  10.75849         40.37961  -1.200000  59.53909  10.85685  23.54698  11.61078  23.58725  10.66012  59.57935   9.90619
       1  41.60372   9.80783         40.54896  -1.200000  59.57935   9.90619  23.58725  10.66012  23.62828   9.70946  59.62038   8.95553
       1  41.64513   8.85716         40.71832  -1.200000  59.62038   8.95553  23.62828   9.70946  23.67008   8.75880  59.66218   8.00487
       1  41.68732   7.90650         40.88767  -1.200000  59.66218   8.00487  23.67008   8.75880  23.71264   7.80814  59.70475   7.05421
       1  41.73026   6.95584         41.05702  -1.200000  59.70475   7.05421  23.71264   7.80814  23.75597   6.85747  59.74808   6.10355
       1  41.77398   6.00518         41.22638  -1.200000  59.74808   6.10355  23.75597   6.85747  23.80007   5.90681  59.79218   5.15289
       1  41.81846   5.05452         41.39573  -1.200000  59.79218   5.15289  23.80007   5.90681  23.84494   4.95615  59.83705   4.20222
       1  41.86372   4.10386         41.56508  -1.200000  59.83705   4.20222  23.84494   4.95615  23.89058   4.00549  59.88268   3.25156
       1  41.90973   3.15320         41.73444  -1.200000  59.88268   3.25156  23.89058   4.00549  23.93698   3.05483  59.92908   2.30090
       1  41.95652   2.20253         41.90379  -1.200000  59.92908   2.30090  23.93698   3.05483  23.98415   2.10417  59.97625   1.35024
       1  42.00407   1.25187         42.07315  -1.200000  59.97625   1.35024  23.98415   2.10417  24.03208   1.15351  60.02419   0.39958
       1  42.05239   0.30121         42.24250  -1.200000  60.02419   0.39958  24.03208   1.15351  24.08079   0.20284  60.07289  -0.55108
