\wavsamp table produced on 2005 Sep 13 for S13.0
\processing time 10:10:58 PST 09/13/2005
\wavsamp software version 5.1 (Wed Apr 20 08:45:04 PDT 2005)
\character channelID = 3
| order |x_center |y_center |   wavelength   |  angle   |   x0    |   y0    |   x1    |   y1    |   x2    |   y2    |   x3    |   y3    |
| int   |  real   |  real   |    real        |   real   |  real   |  real   |  real   |  real   |  real   |  real   |  real   |  real   |
      20   7.80424   0.54536         18.75110   0.700000  10.15080   0.09765   5.48448   0.04064   5.45769   0.99328  10.12401   1.05030
      20   7.77745   1.49884         18.76673   0.700000  10.12401   1.05030   5.45769   0.99328   5.43088   1.94761  10.09720   2.00462
      20   7.75063   2.45400         18.78238   0.700000  10.09720   2.00462   5.43088   1.94761   5.40405   2.90361  10.07037   2.96062
      20   7.72379   3.41085         18.79804   0.700000  10.07037   2.96062   5.40405   2.90361   5.37720   3.86129  10.04352   3.91830
      20   7.69692   4.36937         18.81371   0.700000  10.04352   3.91830   5.37720   3.86129   5.35033   4.82066  10.01664   4.87767
      20   7.67004   5.32958         18.82939   0.700000  10.01664   4.87767   5.35033   4.82066   5.32343   5.78171   9.98975   5.83873
      20   7.64313   6.29148         18.84509   0.700000   9.98975   5.83873   5.32343   5.78171   5.29651   6.74446   9.96283   6.80147
      20   7.61620   7.25507         18.86080   0.700000   9.96283   6.80147   5.29651   6.74446   5.26957   7.70890   9.93589   7.76591
      20   7.58924   8.22036         18.87652   0.700000   9.93589   7.76591   5.26957   7.70890   5.24260   8.67503   9.90892   8.73204
      20   7.56227   9.18734         18.89226   0.700000   9.90892   8.73204   5.24260   8.67503   5.21561   9.64286   9.88193   9.69988
      20   7.53527  10.15603         18.90801   0.700000   9.88193   9.69988   5.21561   9.64286   5.18861  10.61240   9.85492  10.66941
      20   7.50825  11.12641         18.92378   0.700000   9.85492  10.66941   5.18861  10.61240   5.16157  11.58364   9.82789  11.64065
      20   7.48120  12.09851         18.93955   0.700000   9.82789  11.64065   5.16157  11.58364   5.13452  12.55659   9.80084  12.61360
      20   7.45414  13.07231         18.95534   0.700000   9.80084  12.61360   5.13452  12.55659   5.10744  13.53124   9.77376  13.58826
      20   7.42705  14.04782         18.97114   0.700000   9.77376  13.58826   5.10744  13.53124   5.08034  14.50761   9.74666  14.56463
      20   7.39994  15.02505         18.98696   0.700000   9.74666  14.56463   5.08034  14.50761   5.05322  15.48570   9.71954  15.54272
      20   7.37281  16.00400         19.00279   0.700000   9.71954  15.54272   5.05322  15.48570   5.02607  16.46551   9.69239  16.52252
      20   7.34565  16.98467         19.01863   0.700000   9.69239  16.52252   5.02607  16.46551   4.99891  17.44704   9.66522  17.50405
      20   7.31847  17.96706         19.03449   0.700000   9.66522  17.50405   4.99891  17.44704   4.97172  18.43029   9.63803  18.48731
      20   7.29127  18.95118         19.05036   0.700000   9.63803  18.48731   4.97172  18.43029   4.94450  19.41528   9.61082  19.47229
      20   7.26404  19.93703         19.06624   0.700000   9.61082  19.47229   4.94450  19.41528   4.91727  20.40199   9.58359  20.45900
      20   7.23680  20.92461         19.08213   0.700000   9.58359  20.45900   4.91727  20.40199   4.89001  21.39044   9.55633  21.44745
      20   7.20953  21.91393         19.09804   0.700000   9.55633  21.44745   4.89001  21.39044   4.86273  22.38063   9.52905  22.43764
      20   7.18223  22.90498         19.11396   0.700000   9.52905  22.43764   4.86273  22.38063   4.83542  23.37255   9.50174  23.42956
      20   7.15492  23.89778         19.12990   0.700000   9.50174  23.42956   4.83542  23.37255   4.80810  24.36622   9.47441  24.42323
      20   7.12758  24.89232         19.14585   0.700000   9.47441  24.42323   4.80810  24.36622   4.78075  25.36164   9.44707  25.41865
      20   7.10022  25.88861         19.16181   0.700000   9.44707  25.41865   4.78075  25.36164   4.75337  26.35880   9.41969  26.41581
      20   7.07284  26.88665         19.17778   0.700000   9.41969  26.41581   4.75337  26.35880   4.72598  27.35771   9.39230  27.41473
      20   7.04543  27.88644         19.19377   0.700000   9.39230  27.41473   4.72598  27.35771   4.69856  28.35839   9.36488  28.41540
      20   7.01800  28.88799         19.20977   0.700000   9.36488  28.41540   4.69856  28.35839   4.67112  29.36081   9.33744  29.41783
      20   6.99055  29.89130         19.22579   0.700000   9.33744  29.41783   4.67112  29.36081   4.64366  30.36500   9.30998  30.42202
      20   6.96307  30.89637         19.24181   0.700000   9.30998  30.42202   4.64366  30.36500   4.61617  31.37096   9.28249  31.42797
      20   6.93558  31.90321         19.25786   0.700000   9.28249  31.42797   4.61617  31.37096   4.58866  32.37868   9.25498  32.43569
      20   6.90805  32.91181         19.27391   0.700000   9.25498  32.43569   4.58866  32.37868   4.56113  33.38817   9.22745  33.44518
      20   6.88051  33.92219         19.28998   0.700000   9.22745  33.44518   4.56113  33.38817   4.53357  34.39943   9.19989  34.45645
      20   6.85294  34.93434         19.30606   0.700000   9.19989  34.45645   4.53357  34.39943   4.50600  35.41247   9.17231  35.46949
      20   6.82535  35.94827         19.32216   0.700000   9.17231  35.46949   4.50600  35.41247   4.47839  36.42729   9.14471  36.48431
      20   6.79774  36.96398         19.33826   0.700000   9.14471  36.48431   4.47839  36.42729   4.45077  37.44390   9.11709  37.50091
      20   6.77011  37.98148         19.35439   0.700000   9.11709  37.50091   4.45077  37.44390   4.42312  38.46228   9.08944  38.51930
      20   6.74245  39.00076         19.37052   0.700000   9.08944  38.51930   4.42312  38.46228   4.39545  39.48246   9.06177  39.53947
      20   6.71476  40.02183         19.38667   0.700000   9.06177  39.53947   4.39545  39.48246   4.36776  40.50442   9.03408  40.56144
      20   6.68706  41.04469         19.40283   0.700000   9.03408  40.56144   4.36776  40.50442   4.34004  41.52819   9.00636  41.58520
      20   6.65933  42.06935         19.41901   0.700000   9.00636  41.58520   4.34004  41.52819   4.31230  42.55374   8.97862  42.61076
      20   6.63158  43.09581         19.43520   0.700000   8.97862  42.61076   4.31230  42.55374   4.28454  43.58110   8.95086  43.63812
      20   6.60381  44.12407         19.45140   0.700000   8.95086  43.63812   4.28454  43.58110   4.25675  44.61027   8.92307  44.66728
      20   6.57601  45.15414         19.46762   0.700000   8.92307  44.66728   4.25675  44.61027   4.22894  45.64124   8.89526  45.69825
      20   6.54819  46.18601         19.48385   0.700000   8.89526  45.69825   4.22894  45.64124   4.20111  46.67401   8.86743  46.73103
      20   6.52034  47.21970         19.50009   0.700000   8.86743  46.73103   4.20111  46.67401   4.17326  47.70861   8.83958  47.76562
      20   6.49248  48.25520         19.51635   0.700000   8.83958  47.76562   4.17326  47.70861   4.14538  48.74501   8.81170  48.80203
      20   6.46459  49.29252         19.53262   0.700000   8.81170  48.80203   4.14538  48.74501   4.11748  49.78324   8.78379  49.84025
      20   6.43667  50.33165         19.54890   0.700000   8.78379  49.84025   4.11748  49.78324   4.08955  50.82329   8.75587  50.88030
      20   6.40874  51.37262         19.56520   0.700000   8.75587  50.88030   4.08955  50.82329   4.06160  51.86517   8.72792  51.92218
      20   6.38078  52.41540         19.58151   0.700000   8.72792  51.92218   4.06160  51.86517   4.03363  52.90887   8.69995  52.96588
      20   6.35279  53.46002         19.59783   0.700000   8.69995  52.96588   4.03363  52.90887   4.00564  53.95441   8.67195  54.01142
      20   6.32479  54.50648         19.61417   0.700000   8.67195  54.01142   4.00564  53.95441   3.97762  55.00177   8.64394  55.05879
      20   6.29676  55.55476         19.63053   0.700000   8.64394  55.05879   3.97762  55.00177   3.94958  56.05098   8.61589  56.10799
      20   6.26870  56.60489         19.64689   0.700000   8.61589  56.10799   3.94958  56.05098   3.92151  57.10203   8.58783  57.15904
      20   6.24063  57.65686         19.66327   0.700000   8.58783  57.15904   3.92151  57.10203   3.89342  58.15492   8.55974  58.21194
      20   6.21253  58.71068         19.67966   0.700000   8.55974  58.21194   3.89342  58.15492   3.86531  59.20966   8.53163  59.26668
      20   6.18440  59.76634         19.69607   0.700000   8.53163  59.26668   3.86531  59.20966   3.83717  60.26625   8.50349  60.32327
      20   6.15625  60.82386         19.71249   0.700000   8.50349  60.32327   3.83717  60.26625   3.80902  61.32470   8.47533  61.38171
      20   6.12808  61.88323         19.72892   0.700000   8.47533  61.38171   3.80902  61.32470   3.78083  62.38500   8.44715  62.44201
      20   6.09989  62.94446         19.74537   0.700000   8.44715  62.44201   3.78083  62.38500   3.75263  63.44716   8.41895  63.50417
      20   6.07167  64.00756         19.76183   0.700000   8.41895  63.50417   3.75263  63.44716   3.72440  64.51118   8.39072  64.56820
      20   6.04343  65.07251         19.77831   0.700000   8.39072  64.56820   3.72440  64.51118   3.69615  65.57707   8.36246  65.63409
      20   6.01517  66.13934         19.79480   0.700000   8.36246  65.63409   3.69615  65.57707   3.66787  66.64483   8.33419  66.70185
      20   5.98688  67.20803         19.81130   0.700000   8.33419  66.70185   3.66787  66.64483   3.63957  67.71447   8.30589  67.77148
      20   5.95857  68.27860         19.82782   0.700000   8.30589  67.77148   3.63957  67.71447   3.61125  68.78597   8.27756  68.84299
      20   5.93023  69.35105         19.84435   0.700000   8.27756  68.84299   3.61125  68.78597   3.58290  69.85936   8.24922  69.91637
      20   5.90187  70.42538         19.86089   0.700000   8.24922  69.91637   3.58290  69.85936   3.55453  70.93463   8.22085  70.99164
      20   5.87349  71.50159         19.87745   0.700000   8.22085  70.99164   3.55453  70.93463   3.52613  72.01179   8.19245  72.06880
      20   5.84508  72.57969         19.89402   0.700000   8.19245  72.06880   3.52613  72.01179   3.49771  73.09083   8.16403  73.14784
      20   5.81665  73.65968         19.91060   0.700000   8.16403  73.14784   3.49771  73.09083   3.46927  74.17177   8.13559  74.22878
      20   5.78820  74.74157         19.92720   0.700000   8.13559  74.22878   3.46927  74.17177   3.44081  75.25460   8.10713  75.31161
      20   5.75972  75.82535         19.94382   0.700000   8.10713  75.31161   3.44081  75.25460   3.41232  76.33933   8.07864  76.39634
      20   5.73122  76.91103         19.96044   0.700000   8.07864  76.39634   3.41232  76.33933   3.38380  77.42596   8.05012  77.48297
      20   5.70270  77.99861         19.97708   0.700000   8.05012  77.48297   3.38380  77.42596   3.35527  78.51450   8.02159  78.57151
      20   5.67415  79.08810         19.99374   0.700000   8.02159  78.57151   3.35527  78.51450   3.32671  79.60494   7.99303  79.66195
      20   5.64557  80.17950         20.01041   0.700000   7.99303  79.66195   3.32671  79.60494   3.29812  80.69730   7.96444  80.75431
      20   5.61698  81.27281         20.02709   0.700000   7.96444  80.75431   3.29812  80.69730   3.26951  81.79157   7.93583  81.84858
      20   5.58836  82.36804         20.04378   0.700000   7.93583  81.84858   3.26951  81.79157   3.24088  82.88776   7.90720  82.94477
      20   5.55971  83.46519         20.06049   0.700000   7.90720  82.94477   3.24088  82.88776   3.21223  83.98587   7.87854  84.04288
      20   5.53105  84.56427         20.07722   0.700000   7.87854  84.04288   3.21223  83.98587   3.18355  85.08590   7.84986  85.14292
      20   5.50235  85.66526         20.09396   0.700000   7.84986  85.14292   3.18355  85.08590   3.15484  86.18787   7.82116  86.24488
      20   5.47364  86.76819         20.11071   0.700000   7.82116  86.24488   3.15484  86.18787   3.12612  87.29176   7.79243  87.34877
      20   5.44490  87.87305         20.12747   0.700000   7.79243  87.34877   3.12612  87.29176   3.09736  88.39759   7.76368  88.45460
      20   5.41613  88.97985         20.14425   0.700000   7.76368  88.45460   3.09736  88.39759   3.06859  89.50535   7.73491  89.56237
      20   5.38735  90.08859         20.16105   0.700000   7.73491  89.56237   3.06859  89.50535   3.03979  90.61506   7.70611  90.67207
      20   5.35854  91.19926         20.17786   0.700000   7.70611  90.67207   3.03979  90.61506   3.01096  91.72671   7.67728  91.78372
      20   5.32970  92.31189         20.19468   0.700000   7.67728  91.78372   3.01096  91.72671   2.98212  92.84031   7.64844  92.89732
      20   5.30084  93.42646         20.21151   0.700000   7.64844  92.89732   2.98212  92.84031   2.95325  93.95586   7.61956  94.01287
      20   5.27196  94.54299         20.22836   0.700000   7.61956  94.01287   2.95325  93.95586   2.92435  95.07336   7.59067  95.13038
      20   5.24305  95.66147         20.24523   0.700000   7.59067  95.13038   2.92435  95.07336   2.89543  96.19283   7.56175  96.24984
      20   5.21412  96.78192         20.26211   0.700000   7.56175  96.24984   2.89543  96.19283   2.86649  97.31425   7.53280  97.37126
      20   5.18516  97.90432         20.27900   0.700000   7.53280  97.37126   2.86649  97.31425   2.83752  98.43764   7.50384  98.49465
      20   5.15618  99.02869         20.29590   0.700000   7.50384  98.49465   2.83752  98.43764   2.80853  99.56299   7.47484  99.62001
      20   5.12718 100.15503         20.31282   0.700000   7.47484  99.62001   2.80853  99.56299   2.77951 100.69032   7.44583 100.74733
      20   5.09815 101.28335         20.32976   0.700000   7.44583 100.74733   2.77951 100.69032   2.75047 101.81962   7.41679 101.87663
      20   5.06909 102.41364         20.34671   0.700000   7.41679 101.87663   2.75047 101.81962   2.72140 102.95090   7.38772 103.00791
      20   5.04002 103.54591         20.36367   0.700000   7.38772 103.00791   2.72140 102.95090   2.69231 104.08416   7.35863 104.14117
      20   5.01092 104.68016         20.38065   0.700000   7.35863 104.14117   2.69231 104.08416   2.66320 105.21940   7.32952 105.27642
      20   4.98179 105.81640         20.39764   0.700000   7.32952 105.27642   2.66320 105.21940   2.63406 106.35664   7.30038 106.41365
      20   4.95264 106.95462         20.41464   0.700000   7.30038 106.41365   2.63406 106.35664   2.60490 107.49586   7.27122 107.55287
      20   4.92347 108.09484         20.43166   0.700000   7.27122 107.55287   2.60490 107.49586   2.57572 108.63708   7.24203 108.69409
      20   4.89427 109.23706         20.44870   0.700000   7.24203 108.69409   2.57572 108.63708   2.54650 109.78029   7.21282 109.83731
      20   4.86505 110.38128         20.46574   0.700000   7.21282 109.83731   2.54650 109.78029   2.51727 110.92551   7.18359 110.98253
      20   4.83580 111.52750         20.48281   0.700000   7.18359 110.98253   2.51727 110.92551   2.48801 112.07274   7.15433 112.12975
      20   4.80653 112.67573         20.49988   0.700000   7.15433 112.12975   2.48801 112.07274   2.45873 113.22197   7.12505 113.27898
      20   4.77723 113.82596         20.51697   0.700000   7.12505 113.27898   2.45873 113.22197   2.42942 114.37321   7.09574 114.43022
      20   4.74791 114.97822         20.53408   0.700000   7.09574 114.43022   2.42942 114.37321   2.40009 115.52647   7.06640 115.58348
      20   4.71857 116.13248         20.55119   0.700000   7.06640 115.58348   2.40009 115.52647   2.37073 116.68175   7.03705 116.73876
      20   4.68920 117.28877         20.56833   0.700000   7.03705 116.73876   2.37073 116.68175   2.34135 117.83905   7.00767 117.89606
      20   4.65980 118.44709         20.58548   0.700000   7.00767 117.89606   2.34135 117.83905   2.31194 118.99837   6.97826 119.05539
      20   4.63039 119.60743         20.60264   0.700000   6.97826 119.05539   2.31194 118.99837   2.28251 120.15973   6.94883 120.21674
      20   4.60094 120.76980         20.61981   0.700000   6.94883 120.21674   2.28251 120.15973   2.25306 121.32312   6.91937 121.38013
      20   4.57148 121.93420         20.63700   0.700000   6.91937 121.38013   2.25306 121.32312   2.22358 122.48854   6.88990 122.54555
      20   4.54198 123.10064         20.65421   0.700000   6.88990 122.54555   2.22358 122.48854   2.19407 123.65600   6.86039 123.71302
      20   4.51247 124.26913         20.67143   0.700000   6.86039 123.71302   2.19407 123.65600   2.16454 124.82551   6.83086 124.88252
      20   4.48293 125.43966         20.68866   0.700000   6.83086 124.88252   2.16454 124.82551   2.13499 125.99706   6.80131 126.05407
      20   4.45336 126.61223         20.70591   0.700000   6.80131 126.05407   2.13499 125.99706   2.10541 127.17066   6.77173 127.22768
      20   4.42377 127.78686         20.72317   0.700000   6.77173 127.22768   2.10541 127.17066   2.07581 128.34632   6.74213 128.40333
      19  14.68378   0.88503         19.76183   1.920000  17.02487   0.47159  12.36083   0.31523  12.34268   1.29870  17.00673   1.45505
      19  14.66562   1.86937         19.77831   1.920000  17.00673   1.45505  12.34268   1.29870  12.32451   2.28393  16.98856   2.44028
      19  14.64745   2.85548         19.79480   1.920000  16.98856   2.44028  12.32451   2.28393  12.30634   3.27092  16.97038   3.42727
      19  14.62926   3.84335         19.81130   1.920000  16.97038   3.42727  12.30634   3.27092  12.28814   4.25967  16.95219   4.41602
      19  14.61106   4.83299         19.82782   1.920000  16.95219   4.41602  12.28814   4.25967  12.26993   5.25019  16.93398   5.40654
      19  14.59284   5.82439         19.84435   1.920000  16.93398   5.40654  12.26993   5.25019  12.25171   6.24248  16.91575   6.39883
      19  14.57461   6.81757         19.86089   1.920000  16.91575   6.39883  12.25171   6.24248  12.23347   7.23655  16.89751   7.39290
      19  14.55636   7.81253         19.87745   1.920000  16.89751   7.39290  12.23347   7.23655  12.21521   8.23239  16.87926   8.38874
      19  14.53810   8.80926         19.89402   1.920000  16.87926   8.38874  12.21521   8.23239  12.19694   9.23002  16.86099   9.38637
      19  14.51982   9.80778         19.91060   1.920000  16.86099   9.38637  12.19694   9.23002  12.17866  10.22942  16.84270  10.38578
      19  14.50153  10.80808         19.92720   1.920000  16.84270  10.38578  12.17866  10.22942  12.16035  11.23062  16.82440  11.38697
      19  14.48322  11.81016         19.94382   1.920000  16.82440  11.38697  12.16035  11.23062  12.14204  12.23360  16.80609  12.38995
      19  14.46490  12.81404         19.96044   1.920000  16.80609  12.38995  12.14204  12.23360  12.12371  13.23837  16.78775  13.39473
      19  14.44656  13.81972         19.97708   1.920000  16.78775  13.39473  12.12371  13.23837  12.10536  14.24495  16.76941  14.40130
      19  14.42820  14.82719         19.99374   1.920000  16.76941  14.40130  12.10536  14.24495  12.08700  15.25332  16.75105  15.40967
      19  14.40983  15.83646         20.01041   1.920000  16.75105  15.40967  12.08700  15.25332  12.06862  16.26349  16.73267  16.41984
      19  14.39145  16.84753         20.02709   1.920000  16.73267  16.41984  12.06862  16.26349  12.05023  17.27546  16.71428  17.43182
      19  14.37305  17.86041         20.04378   1.920000  16.71428  17.43182  12.05023  17.27546  12.03182  18.28925  16.69587  18.44560
      19  14.35463  18.87510         20.06049   1.920000  16.69587  18.44560  12.03182  18.28925  12.01340  19.30484  16.67744  19.46120
      19  14.33620  19.89160         20.07722   1.920000  16.67744  19.46120  12.01340  19.30484  11.99496  20.32225  16.65901  20.47861
      19  14.31775  20.90992         20.09396   1.920000  16.65901  20.47861  11.99496  20.32225  11.97650  21.34148  16.64055  21.49783
      19  14.29929  21.93006         20.11071   1.920000  16.64055  21.49783  11.97650  21.34148  11.95804  22.36253  16.62208  22.51888
      19  14.28082  22.95202         20.12747   1.920000  16.62208  22.51888  11.95804  22.36253  11.93955  23.38540  16.60360  23.54175
      19  14.26232  23.97581         20.14425   1.920000  16.60360  23.54175  11.93955  23.38540  11.92105  24.41010  16.58510  24.56645
      19  14.24382  25.00142         20.16105   1.920000  16.58510  24.56645  11.92105  24.41010  11.90253  25.43663  16.56658  25.59298
      19  14.22529  26.02886         20.17786   1.920000  16.56658  25.59298  11.90253  25.43663  11.88400  26.46499  16.54805  26.62134
      19  14.20675  27.05814         20.19468   1.920000  16.54805  26.62134  11.88400  26.46499  11.86546  27.49519  16.52950  27.65154
      19  14.18820  28.08926         20.21151   1.920000  16.52950  27.65154  11.86546  27.49519  11.84689  28.52723  16.51094  28.68358
      19  14.16963  29.12222         20.22836   1.920000  16.51094  28.68358  11.84689  28.52723  11.82832  29.56111  16.49236  29.71746
      19  14.15104  30.15702         20.24523   1.920000  16.49236  29.71746  11.82832  29.56111  11.80972  30.59683  16.47377  30.75318
      19  14.13244  31.19367         20.26211   1.920000  16.47377  30.75318  11.80972  30.59683  11.79112  31.63441  16.45516  31.79076
      19  14.11383  32.23217         20.27900   1.920000  16.45516  31.79076  11.79112  31.63441  11.77249  32.67383  16.43654  32.83019
      19  14.09520  33.27253         20.29590   1.920000  16.43654  32.83019  11.77249  32.67383  11.75385  33.71512  16.41790  33.87147
      19  14.07655  34.31474         20.31282   1.920000  16.41790  33.87147  11.75385  33.71512  11.73520  34.75826  16.39924  34.91461
      19  14.05789  35.35881         20.32976   1.920000  16.39924  34.91461  11.73520  34.75826  11.71653  35.80326  16.38057  35.95961
      19  14.03921  36.40474         20.34671   1.920000  16.38057  35.95961  11.71653  35.80326  11.69784  36.85013  16.36189  37.00648
      19  14.02051  37.45255         20.36367   1.920000  16.36189  37.00648  11.69784  36.85013  11.67914  37.89886  16.34319  38.05521
      19  14.00180  38.50222         20.38065   1.920000  16.34319  38.05521  11.67914  37.89886  11.66042  38.94947  16.32447  39.10582
      19  13.98308  39.55376         20.39764   1.920000  16.32447  39.10582  11.66042  38.94947  11.64169  40.00195  16.30574  40.15830
      19  13.96434  40.60718         20.41464   1.920000  16.30574  40.15830  11.64169  40.00195  11.62294  41.05631  16.28699  41.21266
      19  13.94558  41.66248         20.43166   1.920000  16.28699  41.21266  11.62294  41.05631  11.60418  42.11255  16.26822  42.26890
      19  13.92681  42.71966         20.44870   1.920000  16.26822  42.26890  11.60418  42.11255  11.58540  43.17068  16.24944  43.32703
      19  13.90802  43.77873         20.46574   1.920000  16.24944  43.32703  11.58540  43.17068  11.56660  44.23069  16.23065  44.38704
      19  13.88922  44.83969         20.48281   1.920000  16.23065  44.38704  11.56660  44.23069  11.54779  45.29259  16.21184  45.44894
      19  13.87040  45.90254         20.49988   1.920000  16.21184  45.44894  11.54779  45.29259  11.52896  46.35639  16.19301  46.51274
      19  13.85156  46.96729         20.51697   1.920000  16.19301  46.51274  11.52896  46.35639  11.51012  47.42208  16.17417  47.57844
      19  13.83271  48.03393         20.53408   1.920000  16.17417  47.57844  11.51012  47.42208  11.49126  48.48968  16.15531  48.64603
      19  13.81385  49.10248         20.55119   1.920000  16.15531  48.64603  11.49126  48.48968  11.47239  49.55918  16.13643  49.71553
      19  13.79497  50.17293         20.56833   1.920000  16.13643  49.71553  11.47239  49.55918  11.45350  50.63058  16.11754  50.78694
      19  13.77607  51.24529         20.58548   1.920000  16.11754  50.78694  11.45350  50.63058  11.43459  51.70390  16.09864  51.86025
      19  13.75716  52.31957         20.60264   1.920000  16.09864  51.86025  11.43459  51.70390  11.41567  52.77913  16.07972  52.93548
      19  13.73823  53.39575         20.61981   1.920000  16.07972  52.93548  11.41567  52.77913  11.39673  53.85628  16.06078  54.01263
      19  13.71928  54.47386         20.63700   1.920000  16.06078  54.01263  11.39673  53.85628  11.37778  54.93535  16.04183  55.09170
      19  13.70032  55.55389         20.65421   1.920000  16.04183  55.09170  11.37778  54.93535  11.35881  56.01634  16.02286  56.17269
      19  13.68134  56.63585         20.67143   1.920000  16.02286  56.17269  11.35881  56.01634  11.33983  57.09926  16.00388  57.25561
      19  13.66235  57.71973         20.68866   1.920000  16.00388  57.25561  11.33983  57.09926  11.32083  58.18411  15.98488  58.34046
      19  13.64334  58.80554         20.70591   1.920000  15.98488  58.34046  11.32083  58.18411  11.30181  59.27089  15.96586  59.42724
      19  13.62432  59.89329         20.72317   1.920000  15.96586  59.42724  11.30181  59.27089  11.28278  60.35961  15.94683  60.51596
      19  13.60528  60.98298         20.74045   1.920000  15.94683  60.51596  11.28278  60.35961  11.26373  61.45027  15.92778  61.60662
      19  13.58622  62.07461         20.75774   1.920000  15.92778  61.60662  11.26373  61.45027  11.24467  62.54287  15.90872  62.69922
      19  13.56715  63.16819         20.77504   1.920000  15.90872  62.69922  11.24467  62.54287  11.22559  63.63742  15.88964  63.79377
      19  13.54807  64.26371         20.79236   1.920000  15.88964  63.79377  11.22559  63.63742  11.20649  64.73392  15.87054  64.89027
      19  13.52896  65.36119         20.80970   1.920000  15.87054  64.89027  11.20649  64.73392  11.18738  65.83237  15.85143  65.98872
      19  13.50984  66.46062         20.82705   1.920000  15.85143  65.98872  11.18738  65.83237  11.16826  66.93278  15.83230  67.08913
      19  13.49071  67.56201         20.84441   1.920000  15.83230  67.08913  11.16826  66.93278  11.14911  68.03515  15.81316  68.19151
      19  13.47156  68.66537         20.86179   1.920000  15.81316  68.19151  11.14911  68.03515  11.12995  69.13949  15.79400  69.29584
      19  13.45239  69.77068         20.87918   1.920000  15.79400  69.29584  11.12995  69.13949  11.11078  70.24579  15.77482  70.40214
      19  13.43321  70.87797         20.89659   1.920000  15.77482  70.40214  11.11078  70.24579  11.09159  71.35406  15.75563  71.51041
      19  13.41401  71.98723         20.91401   1.920000  15.75563  71.51041  11.09159  71.35406  11.07238  72.46431  15.73643  72.62066
      19  13.39479  73.09847         20.93144   1.920000  15.73643  72.62066  11.07238  72.46431  11.05316  73.57653  15.71720  73.73288
      19  13.37556  74.21168         20.94889   1.920000  15.71720  73.73288  11.05316  73.57653  11.03392  74.69074  15.69796  74.84709
      19  13.35631  75.32687         20.96636   1.920000  15.69796  74.84709  11.03392  74.69074  11.01466  75.80692  15.67871  75.96328
      19  13.33705  76.44406         20.98384   1.920000  15.67871  75.96328  11.01466  75.80692  10.99539  76.92510  15.65944  77.08145
      19  13.31777  77.56323         21.00133   1.920000  15.65944  77.08145  10.99539  76.92510  10.97610  78.04527  15.64015  78.20162
      19  13.29847  78.68439         21.01884   1.920000  15.64015  78.20162  10.97610  78.04527  10.95680  79.16743  15.62085  79.32378
      19  13.27916  79.80755         21.03636   1.920000  15.62085  79.32378  10.95680  79.16743  10.93748  80.29159  15.60153  80.44794
      19  13.25984  80.93271         21.05390   1.920000  15.60153  80.44794  10.93748  80.29159  10.91814  81.41775  15.58219  81.57410
      19  13.24049  82.05987         21.07145   1.920000  15.58219  81.57410  10.91814  81.41775  10.89879  82.54591  15.56284  82.70226
      19  13.22113  83.18904         21.08902   1.920000  15.56284  82.70226  10.89879  82.54591  10.87943  83.67609  15.54347  83.83244
      19  13.20176  84.32022         21.10660   1.920000  15.54347  83.83244  10.87943  83.67609  10.86004  84.80827  15.52409  84.96462
      19  13.18236  85.45341         21.12420   1.920000  15.52409  84.96462  10.86004  84.80827  10.84064  85.94247  15.50469  86.09882
      19  13.16296  86.58862         21.14181   1.920000  15.50469  86.09882  10.84064  85.94247  10.82122  87.07869  15.48527  87.23504
      19  13.14353  87.72585         21.15943   1.920000  15.48527  87.23504  10.82122  87.07869  10.80179  88.21693  15.46584  88.37328
      19  13.12409  88.86510         21.17707   1.920000  15.46584  88.37328  10.80179  88.21693  10.78234  89.35719  15.44639  89.51354
      19  13.10463  90.00638         21.19473   1.920000  15.44639  89.51354  10.78234  89.35719  10.76288  90.49949  15.42692  90.65584
      19  13.08516  91.14969         21.21240   1.920000  15.42692  90.65584  10.76288  90.49949  10.74340  91.64381  15.40744  91.80017
      19  13.06567  92.29504         21.23008   1.920000  15.40744  91.80017  10.74340  91.64381  10.72390  92.79018  15.38795  92.94653
      19  13.04617  93.44242         21.24778   1.920000  15.38795  92.94653  10.72390  92.79018  10.70439  93.93858  15.36843  94.09493
      19  13.02664  94.59184         21.26549   1.920000  15.36843  94.09493  10.70439  93.93858  10.68486  95.08902  15.34890  95.24538
      19  13.00711  95.74331         21.28322   1.920000  15.34890  95.24538  10.68486  95.08902  10.66531  96.24152  15.32936  96.39787
      19  12.98755  96.89683         21.30097   1.920000  15.32936  96.39787  10.66531  96.24152  10.64575  97.39606  15.30979  97.55241
      19  12.96798  98.05239         21.31872   1.920000  15.30979  97.55241  10.64575  97.39606  10.62617  98.55265  15.29021  98.70900
      19  12.94839  99.21002         21.33650   1.920000  15.29021  98.70900  10.62617  98.55265  10.60657  99.71130  15.27062  99.86766
      19  12.92879 100.36970         21.35429   1.920000  15.27062  99.86766  10.60657  99.71130  10.58696 100.87202  15.25101 101.02837
      19  12.90917 101.53144         21.37209   1.920000  15.25101 101.02837  10.58696 100.87202  10.56733 102.03479  15.23138 102.19115
      19  12.88953 102.69525         21.38991   1.920000  15.23138 102.19115  10.56733 102.03479  10.54769 103.19964  15.21174 103.35599
      19  12.86988 103.86113         21.40774   1.920000  15.21174 103.35599  10.54769 103.19964  10.52803 104.36655  15.19208 104.52290
      19  12.85021 105.02909         21.42558   1.920000  15.19208 104.52290  10.52803 104.36655  10.50835 105.53554  15.17240 105.69190
      19  12.83053 106.19912         21.44345   1.920000  15.17240 105.69190  10.50835 105.53554  10.48866 106.70661  15.15271 106.86296
      19  12.81083 107.37122         21.46132   1.920000  15.15271 106.86296  10.48866 106.70661  10.46895 107.87976  15.13300 108.03611
      19  12.79111 108.54542         21.47922   1.920000  15.13300 108.03611  10.46895 107.87976  10.44922 109.05500  15.11327 109.21135
      19  12.77137 109.72170         21.49712   1.920000  15.11327 109.21135  10.44922 109.05500  10.42948 110.23232  15.09353 110.38868
      19  12.75162 110.90007         21.51504   1.920000  15.09353 110.38868  10.42948 110.23232  10.40972 111.41174  15.07377 111.56809
      19  12.73186 112.08054         21.53298   1.920000  15.07377 111.56809  10.40972 111.41174  10.38994 112.59326  15.05399 112.74961
      19  12.71207 113.26310         21.55093   1.920000  15.05399 112.74961  10.38994 112.59326  10.37015 113.77687  15.03420 113.93322
      19  12.69227 114.44776         21.56890   1.920000  15.03420 113.93322  10.37015 113.77687  10.35034 114.96259  15.01439 115.11894
      19  12.67246 115.63454         21.58688   1.920000  15.01439 115.11894  10.35034 114.96259  10.33052 116.15041  14.99457 116.30676
      19  12.65262 116.82341         21.60488   1.920000  14.99457 116.30676  10.33052 116.15041  10.31068 117.34035  14.97472 117.49670
      19  12.63277 118.01441         21.62289   1.920000  14.97472 117.49670  10.31068 117.34035  10.29082 118.53240  14.95487 118.68875
      19  12.61291 119.20752         21.64092   1.920000  14.95487 118.68875  10.29082 118.53240  10.27094 119.72656  14.93499 119.88292
      19  12.59302 120.40274         21.65896   1.920000  14.93499 119.88292  10.27094 119.72656  10.25105 120.92285  14.91510 121.07921
      19  12.57312 121.60010         21.67701   1.920000  14.91510 121.07921  10.25105 120.92285  10.23115 122.12127  14.89519 122.27762
      19  12.55321 122.79957         21.69509   1.920000  14.89519 122.27762  10.23115 122.12127  10.21122 123.32181  14.87527 123.47816
      19  12.53327 124.00118         21.71317   1.920000  14.87527 123.47816  10.21122 123.32181  10.19128 124.52449  14.85533 124.68084
      19  12.51332 125.20493         21.73127   1.920000  14.85533 124.68084  10.19128 124.52449  10.17132 125.72930  14.83537 125.88565
      19  12.49336 126.41081         21.74939   1.920000  14.83537 125.88565  10.17132 125.72930  10.15135 126.93625  14.81539 127.09260
      19  12.47338 127.61883         21.76752   1.920000  14.81539 127.09260  10.15135 126.93625  10.13136 128.14535  14.79540 128.30170
      18  22.58445   0.06501         20.80970   3.140000  24.91965  -0.28749  20.25999  -0.54312  20.24925   0.41773  24.90891   0.67335
      18  22.57370   1.02670         20.82705   3.140000  24.90891   0.67335  20.24925   0.41773  20.23850   1.38027  24.89816   1.63590
      18  22.56295   1.99010         20.84441   3.140000  24.89816   1.63590  20.23850   1.38027  20.22774   2.34452  24.88740   2.60014
      18  22.55219   2.95519         20.86179   3.140000  24.88740   2.60014  20.22774   2.34452  20.21697   3.31047  24.87663   3.56609
      18  22.54141   3.92200         20.87918   3.140000  24.87663   3.56609  20.21697   3.31047  20.20620   4.27813  24.86586   4.53375
      18  22.53063   4.89051         20.89659   3.140000  24.86586   4.53375  20.20620   4.27813  20.19541   5.24750  24.85507   5.50312
      18  22.51984   5.86074         20.91401   3.140000  24.85507   5.50312  20.19541   5.24750  20.18462   6.21858  24.84428   6.47420
      18  22.50904   6.83268         20.93144   3.140000  24.84428   6.47420  20.18462   6.21858  20.17381   7.19138  24.83347   7.44700
      18  22.49824   7.80633         20.94889   3.140000  24.83347   7.44700  20.17381   7.19138  20.16300   8.16590  24.82266   8.42152
      18  22.48742   8.78171         20.96636   3.140000  24.82266   8.42152  20.16300   8.16590  20.15218   9.14213  24.81184   9.39776
      18  22.47659   9.75881         20.98384   3.140000  24.81184   9.39776  20.15218   9.14213  20.14135  10.12010  24.80101  10.37572
      18  22.46576  10.73764         21.00133   3.140000  24.80101  10.37572  20.14135  10.12010  20.13051  11.09979  24.79017  11.35541
      18  22.45491  11.71820         21.01884   3.140000  24.79017  11.35541  20.13051  11.09979  20.11966  12.08122  24.77932  12.33684
      18  22.44406  12.70049         21.03636   3.140000  24.77932  12.33684  20.11966  12.08122  20.10880  13.06437  24.76846  13.32000
      18  22.43320  13.68452         21.05390   3.140000  24.76846  13.32000  20.10880  13.06437  20.09793  14.04927  24.75759  14.30489
      18  22.42232  14.67028         21.07145   3.140000  24.75759  14.30489  20.09793  14.04927  20.08706  15.03591  24.74672  15.29153
      18  22.41144  15.65779         21.08902   3.140000  24.74672  15.29153  20.08706  15.03591  20.07617  16.02428  24.73583  16.27990
      18  22.40055  16.64704         21.10660   3.140000  24.73583  16.27990  20.07617  16.02428  20.06528  17.01441  24.72494  17.27003
      18  22.38966  17.63804         21.12420   3.140000  24.72494  17.27003  20.06528  17.01441  20.05437  18.00628  24.71403  18.26190
      18  22.37875  18.63079         21.14181   3.140000  24.71403  18.26190  20.05437  18.00628  20.04346  18.99991  24.70312  19.25553
      18  22.36783  19.62529         21.15943   3.140000  24.70312  19.25553  20.04346  18.99991  20.03254  19.99529  24.69220  20.25091
      18  22.35691  20.62155         21.17707   3.140000  24.69220  20.25091  20.03254  19.99529  20.02161  20.99242  24.68127  21.24805
      18  22.34597  21.61957         21.19473   3.140000  24.68127  21.24805  20.02161  20.99242  20.01067  21.99132  24.67033  22.24694
      18  22.33503  22.61935         21.21240   3.140000  24.67033  22.24694  20.01067  21.99132  19.99972  22.99199  24.65938  23.24761
      18  22.32407  23.62090         21.23008   3.140000  24.65938  23.24761  19.99972  22.99199  19.98876  23.99442  24.64842  24.25004
      18  22.31311  24.62421         21.24778   3.140000  24.64842  24.25004  19.98876  23.99442  19.97780  24.99862  24.63746  25.25424
      18  22.30214  25.62930         21.26549   3.140000  24.63746  25.25424  19.97780  24.99862  19.96682  26.00459  24.62648  26.26021
      18  22.29116  26.63616         21.28322   3.140000  24.62648  26.26021  19.96682  26.00459  19.95583  27.01234  24.61549  27.26796
      18  22.28017  27.64480         21.30097   3.140000  24.61549  27.26796  19.95583  27.01234  19.94484  28.02187  24.60450  28.27749
      18  22.26917  28.65522         21.31872   3.140000  24.60450  28.27749  19.94484  28.02187  19.93384  29.03318  24.59350  29.28880
      18  22.25816  29.66742         21.33650   3.140000  24.59350  29.28880  19.93384  29.03318  19.92282  30.04628  24.58248  30.30190
      18  22.24714  30.68141         21.35429   3.140000  24.58248  30.30190  19.92282  30.04628  19.91180  31.06116  24.57146  31.31678
      18  22.23612  31.69719         21.37209   3.140000  24.57146  31.31678  19.91180  31.06116  19.90077  32.07784  24.56043  32.33346
      18  22.22508  32.71477         21.38991   3.140000  24.56043  32.33346  19.90077  32.07784  19.88973  33.09631  24.54939  33.35193
      18  22.21404  33.73413         21.40774   3.140000  24.54939  33.35193  19.88973  33.09631  19.87868  34.11658  24.53834  34.37220
      18  22.20298  34.75530         21.42558   3.140000  24.53834  34.37220  19.87868  34.11658  19.86762  35.13865  24.52728  35.39427
      18  22.19192  35.77827         21.44345   3.140000  24.52728  35.39427  19.86762  35.13865  19.85655  36.16252  24.51621  36.41814
      18  22.18084  36.80305         21.46132   3.140000  24.51621  36.41814  19.85655  36.16252  19.84548  37.18820  24.50514  37.44382
      18  22.16976  37.82963         21.47922   3.140000  24.50514  37.44382  19.84548  37.18820  19.83439  38.21569  24.49405  38.47131
      18  22.15867  38.85803         21.49712   3.140000  24.49405  38.47131  19.83439  38.21569  19.82329  39.24499  24.48295  39.50061
      18  22.14757  39.88824         21.51504   3.140000  24.48295  39.50061  19.82329  39.24499  19.81219  40.27611  24.47185  40.53173
      18  22.13646  40.92027         21.53298   3.140000  24.47185  40.53173  19.81219  40.27611  19.80107  41.30905  24.46073  41.56467
      18  22.12534  41.95412         21.55093   3.140000  24.46073  41.56467  19.80107  41.30905  19.78995  42.34381  24.44961  42.59943
      18  22.11421  42.98979         21.56890   3.140000  24.44961  42.59943  19.78995  42.34381  19.77882  43.38039  24.43848  43.63601
      18  22.10308  44.02729         21.58688   3.140000  24.43848  43.63601  19.77882  43.38039  19.76768  44.41881  24.42734  44.67443
      18  22.09193  45.06662         21.60488   3.140000  24.42734  44.67443  19.76768  44.41881  19.75652  45.45905  24.41618  45.71467
      18  22.08077  46.10778         21.62289   3.140000  24.41618  45.71467  19.75652  45.45905  19.74536  46.50113  24.40502  46.75675
      18  22.06961  47.15078         21.64092   3.140000  24.40502  46.75675  19.74536  46.50113  19.73419  47.54505  24.39385  47.80067
      18  22.05843  48.19562         21.65896   3.140000  24.39385  47.80067  19.73419  47.54505  19.72301  48.59081  24.38267  48.84643
      18  22.04725  49.24230         21.67701   3.140000  24.38267  48.84643  19.72301  48.59081  19.71183  49.63842  24.37149  49.89404
      18  22.03606  50.29083         21.69509   3.140000  24.37149  49.89404  19.71183  49.63842  19.70063  50.68787  24.36029  50.94349
      18  22.02485  51.34121         21.71317   3.140000  24.36029  50.94349  19.70063  50.68787  19.68942  51.73917  24.34908  51.99479
      18  22.01364  52.39344         21.73127   3.140000  24.34908  51.99479  19.68942  51.73917  19.67820  52.79233  24.33786  53.04795
      18  22.00242  53.44752         21.74939   3.140000  24.33786  53.04795  19.67820  52.79233  19.66698  53.84734  24.32664  54.10296
      18  21.99119  54.50346         21.76752   3.140000  24.32664  54.10296  19.66698  53.84734  19.65574  54.90421  24.31540  55.15983
      18  21.97995  55.56127         21.78567   3.140000  24.31540  55.15983  19.65574  54.90421  19.64450  55.96295  24.30416  56.21857
      18  21.96870  56.62094         21.80383   3.140000  24.30416  56.21857  19.64450  55.96295  19.63324  57.02355  24.29290  57.27918
      18  21.95744  57.68248         21.82201   3.140000  24.29290  57.27918  19.63324  57.02355  19.62198  58.08603  24.28164  58.34165
      18  21.94617  58.74589         21.84020   3.140000  24.28164  58.34165  19.62198  58.08603  19.61071  59.15037  24.27037  59.40599
      18  21.93490  59.81117         21.85841   3.140000  24.27037  59.40599  19.61071  59.15037  19.59943  60.21660  24.25909  60.47222
      18  21.92361  60.87833         21.87663   3.140000  24.25909  60.47222  19.59943  60.21660  19.58813  61.28470  24.24779  61.54032
      18  21.91231  61.94738         21.89487   3.140000  24.24779  61.54032  19.58813  61.28470  19.57683  62.35468  24.23649  62.61030
      18  21.90101  63.01830         21.91312   3.140000  24.23649  62.61030  19.57683  62.35468  19.56552  63.42655  24.22518  63.68217
      18  21.88969  64.09112         21.93139   3.140000  24.22518  63.68217  19.56552  63.42655  19.55420  64.50031  24.21386  64.75593
      18  21.87837  65.16582         21.94968   3.140000  24.21386  64.75593  19.55420  64.50031  19.54287  65.57596  24.20253  65.83158
      18  21.86703  66.24242         21.96798   3.140000  24.20253  65.83158  19.54287  65.57596  19.53153  66.65351  24.19119  66.90913
      18  21.85569  67.32092         21.98629   3.140000  24.19119  66.90913  19.53153  66.65351  19.52019  67.73296  24.17985  67.98858
      18  21.84434  68.40132         22.00462   3.140000  24.17985  67.98858  19.52019  67.73296  19.50883  68.81431  24.16849  69.06993
      18  21.83297  69.48362         22.02296   3.140000  24.16849  69.06993  19.50883  68.81431  19.49746  69.89756  24.15712  70.15318
      18  21.82160  70.56782         22.04132   3.140000  24.15712  70.15318  19.49746  69.89756  19.48608  70.98272  24.14574  71.23834
      18  21.81022  71.65394         22.05970   3.140000  24.14574  71.23834  19.48608  70.98272  19.47470  72.06979  24.13436  72.32541
      18  21.79883  72.74197         22.07809   3.140000  24.13436  72.32541  19.47470  72.06979  19.46330  73.15878  24.12296  73.41440
      18  21.78743  73.83192         22.09650   3.140000  24.12296  73.41440  19.46330  73.15878  19.45190  74.24969  24.11156  74.50531
      18  21.77602  74.92379         22.11492   3.140000  24.11156  74.50531  19.45190  74.24969  19.44048  75.34252  24.10014  75.59814
      18  21.76460  76.01758         22.13336   3.140000  24.10014  75.59814  19.44048  75.34252  19.42906  76.43727  24.08872  76.69289
      18  21.75317  77.11330         22.15181   3.140000  24.08872  76.69289  19.42906  76.43727  19.41762  77.53395  24.07728  77.78958
      18  21.74173  78.21094         22.17027   3.140000  24.07728  77.78958  19.41762  77.53395  19.40618  78.63257  24.06584  78.88819
      18  21.73029  79.31053         22.18876   3.140000  24.06584  78.88819  19.40618  78.63257  19.39473  79.73312  24.05439  79.98874
      18  21.71883  80.41204         22.20726   3.140000  24.05439  79.98874  19.39473  79.73312  19.38327  80.83560  24.04293  81.09122
      18  21.70736  81.51550         22.22577   3.140000  24.04293  81.09122  19.38327  80.83560  19.37179  81.94003  24.03145  82.19565
      18  21.69588  82.62090         22.24430   3.140000  24.03145  82.19565  19.37179  81.94003  19.36031  83.04640  24.01997  83.30202
      18  21.68440  83.72825         22.26284   3.140000  24.01997  83.30202  19.36031  83.04640  19.34882  84.15472  24.00848  84.41035
      18  21.67290  84.83754         22.28140   3.140000  24.00848  84.41035  19.34882  84.15472  19.33732  85.26500  23.99698  85.52062
      18  21.66140  85.94879         22.29998   3.140000  23.99698  85.52062  19.33732  85.26500  19.32581  86.37722  23.98547  86.63285
      18  21.64988  87.06200         22.31857   3.140000  23.98547  86.63285  19.32581  86.37722  19.31429  87.49141  23.97395  87.74703
      18  21.63836  88.17716         22.33718   3.140000  23.97395  87.74703  19.31429  87.49141  19.30276  88.60756  23.96242  88.86318
      18  21.62682  89.29429         22.35580   3.140000  23.96242  88.86318  19.30276  88.60756  19.29122  89.72567  23.95088  89.98129
      18  21.61528  90.41339         22.37444   3.140000  23.95088  89.98129  19.29122  89.72567  19.27967  90.84575  23.93933  91.10137
      18  21.60373  91.53446         22.39309   3.140000  23.93933  91.10137  19.27967  90.84575  19.26812  91.96780  23.92778  92.22342
      18  21.59216  92.65749         22.41176   3.140000  23.92778  92.22342  19.26812  91.96780  19.25655  93.09183  23.91621  93.34745
      18  21.58059  93.78251         22.43044   3.140000  23.91621  93.34745  19.25655  93.09183  19.24497  94.21783  23.90463  94.47345
      18  21.56901  94.90951         22.44914   3.140000  23.90463  94.47345  19.24497  94.21783  19.23338  95.34582  23.89304  95.60144
      18  21.55742  96.03849         22.46786   3.140000  23.89304  95.60144  19.23338  95.34582  19.22179  96.47579  23.88145  96.73141
      18  21.54581  97.16945         22.48659   3.140000  23.88145  96.73141  19.22179  96.47579  19.21018  97.60775  23.86984  97.86337
      18  21.53420  98.30241         22.50534   3.140000  23.86984  97.86337  19.21018  97.60775  19.19856  98.74170  23.85822  98.99733
      18  21.52258  99.43736         22.52410   3.140000  23.85822  98.99733  19.19856  98.74170  19.18694  99.87765  23.84660 100.13327
      18  21.51095 100.57430         22.54288   3.140000  23.84660 100.13327  19.18694  99.87765  19.17530 101.01560  23.83496 101.27122
      18  21.49931 101.71325         22.56167   3.140000  23.83496 101.27122  19.17530 101.01560  19.16366 102.15555  23.82332 102.41117
      18  21.48766 102.85420         22.58048   3.140000  23.82332 102.41117  19.16366 102.15555  19.15200 103.29750  23.81166 103.55312
      18  21.47600 103.99716         22.59930   3.140000  23.81166 103.55312  19.15200 103.29750  19.14034 104.44146  23.80000 104.69709
      18  21.46433 105.14213         22.61814   3.140000  23.80000 104.69709  19.14034 104.44146  19.12866 105.58744  23.78832 105.84306
      18  21.45265 106.28911         22.63700   3.140000  23.78832 105.84306  19.12866 105.58744  19.11698 106.73543  23.77664 106.99105
      18  21.44096 107.43812         22.65587   3.140000  23.77664 106.99105  19.11698 106.73543  19.10529 107.88544  23.76495 108.14106
      18  21.42926 108.58914         22.67476   3.140000  23.76495 108.14106  19.10529 107.88544  19.09358 109.03748  23.75324 109.29310
      18  21.41756 109.74219         22.69366   3.140000  23.75324 109.29310  19.09358 109.03748  19.08187 110.19154  23.74153 110.44716
      18  21.40584 110.89726         22.71258   3.140000  23.74153 110.44716  19.08187 110.19154  19.07015 111.34763  23.72981 111.60325
      18  21.39411 112.05437         22.73152   3.140000  23.72981 111.60325  19.07015 111.34763  19.05841 112.50575  23.71807 112.76137
      18  21.38237 113.21351         22.75047   3.140000  23.71807 112.76137  19.05841 112.50575  19.04667 113.66591  23.70633 113.92153
      18  21.37062 114.37469         22.76944   3.140000  23.70633 113.92153  19.04667 113.66591  19.03492 114.82811  23.69458 115.08373
      18  21.35887 115.53791         22.78842   3.140000  23.69458 115.08373  19.03492 114.82811  19.02316 115.99236  23.68282 116.24798
      18  21.34710 116.70318         22.80742   3.140000  23.68282 116.24798  19.02316 115.99236  19.01138 117.15865  23.67104 117.41427
      18  21.33532 117.87049         22.82643   3.140000  23.67104 117.41427  19.01138 117.15865  18.99960 118.32699  23.65926 118.58261
      18  21.32354 119.03986         22.84546   3.140000  23.65926 118.58261  18.99960 118.32699  18.98781 119.49738  23.64747 119.75301
      18  21.31174 120.21129         22.86451   3.140000  23.64747 119.75301  18.98781 119.49738  18.97601 120.66984  23.63567 120.92546
      18  21.29993 121.38477         22.88357   3.140000  23.63567 120.92546  18.97601 120.66984  18.96420 121.84435  23.62386 122.09997
      18  21.28812 122.56032         22.90265   3.140000  23.62386 122.09997  18.96420 121.84435  18.95238 123.02093  23.61204 123.27655
      18  21.27629 123.73793         22.92174   3.140000  23.61204 123.27655  18.95238 123.02093  18.94054 124.19958  23.60020 124.45520
      18  21.26445 124.91761         22.94085   3.140000  23.60020 124.45520  18.94054 124.19958  18.92870 125.38030  23.58836 125.63592
      18  21.25261 126.09937         22.95997   3.140000  23.58836 125.63592  18.92870 125.38030  18.91685 126.56310  23.57651 126.81872
      18  21.24075 127.28321         22.97912   3.140000  23.57651 126.81872  18.91685 126.56310  18.90499 127.74797  23.56465 128.00359
      17  31.29905  -0.13538         22.02296   4.470000  33.62680  -0.43187  28.97433  -0.79558  28.97129   0.16133  33.62377   0.52504
      17  31.29601   0.82238         22.04132   4.470000  33.62377   0.52504  28.97129   0.16133  28.96826   1.11993  33.62073   1.48364
      17  31.29298   1.78182         22.05970   4.470000  33.62073   1.48364  28.96826   1.11993  28.96522   2.08023  33.61769   2.44393
      17  31.28994   2.74296         22.07809   4.470000  33.61769   2.44393  28.96522   2.08023  28.96218   3.04222  33.61465   3.40592
      17  31.28690   3.70580         22.09650   4.470000  33.61465   3.40592  28.96218   3.04222  28.95914   4.00590  33.61161   4.36961
      17  31.28385   4.67033         22.11492   4.470000  33.61161   4.36961  28.95914   4.00590  28.95610   4.97129  33.60857   5.33499
      17  31.28081   5.63657         22.13336   4.470000  33.60857   5.33499  28.95610   4.97129  28.95305   5.93837  33.60552   6.30208
      17  31.27776   6.60451         22.15181   4.470000  33.60552   6.30208  28.95305   5.93837  28.95000   6.90717  33.60247   7.27087
      17  31.27471   7.57416         22.17027   4.470000  33.60247   7.27087  28.95000   6.90717  28.94695   7.87767  33.59942   8.24138
      17  31.27166   8.54552         22.18876   4.470000  33.59942   8.24138  28.94695   7.87767  28.94389   8.84989  33.59637   9.21359
      17  31.26860   9.51859         22.20726   4.470000  33.59637   9.21359  28.94389   8.84989  28.94084   9.82381  33.59331  10.18752
      17  31.26554  10.49338         22.22577   4.470000  33.59331  10.18752  28.94084   9.82381  28.93778  10.79946  33.59025  11.16317
      17  31.26248  11.46989         22.24430   4.470000  33.59025  11.16317  28.93778  10.79946  28.93471  11.77683  33.58719  12.14054
      17  31.25942  12.44811         22.26284   4.470000  33.58719  12.14054  28.93471  11.77683  28.93165  12.75592  33.58412  13.11963
      17  31.25635  13.42807         22.28140   4.470000  33.58412  13.11963  28.93165  12.75592  28.92858  13.73674  33.58105  14.10044
      17  31.25328  14.40975         22.29998   4.470000  33.58105  14.10044  28.92858  13.73674  28.92551  14.71929  33.57798  15.08299
      17  31.25021  15.39316         22.31857   4.470000  33.57798  15.08299  28.92551  14.71929  28.92244  15.70357  33.57491  16.06727
      17  31.24714  16.37831         22.33718   4.470000  33.57491  16.06727  28.92244  15.70357  28.91936  16.68958  33.57184  17.05329
      17  31.24406  17.36520         22.35580   4.470000  33.57184  17.05329  28.91936  16.68958  28.91629  17.67733  33.56876  18.04104
      17  31.24098  18.35382         22.37444   4.470000  33.56876  18.04104  28.91629  17.67733  28.91321  18.66683  33.56568  19.03053
      17  31.23790  19.34419         22.39309   4.470000  33.56568  19.03053  28.91321  18.66683  28.91012  19.65807  33.56260  20.02177
      17  31.23482  20.33630         22.41176   4.470000  33.56260  20.02177  28.91012  19.65807  28.90704  20.65105  33.55951  21.01476
      17  31.23173  21.33016         22.43044   4.470000  33.55951  21.01476  28.90704  20.65105  28.90395  21.64579  33.55642  22.00950
      17  31.22864  22.32577         22.44914   4.470000  33.55642  22.00950  28.90395  21.64579  28.90086  22.64228  33.55333  23.00599
      17  31.22555  23.32314         22.46786   4.470000  33.55333  23.00599  28.90086  22.64228  28.89777  23.64053  33.55024  24.00423
      17  31.22246  24.32227         22.48659   4.470000  33.55024  24.00423  28.89777  23.64053  28.89467  24.64053  33.54714  25.00424
      17  31.21936  25.32315         22.50534   4.470000  33.54714  25.00424  28.89467  24.64053  28.89157  25.64230  33.54405  26.00601
      17  31.21626  26.32580         22.52410   4.470000  33.54405  26.00601  28.89157  25.64230  28.88847  26.64583  33.54094  27.00954
      17  31.21316  27.33022         22.54288   4.470000  33.54094  27.00954  28.88847  26.64583  28.88537  27.65114  33.53784  28.01484
      17  31.21005  28.33641         22.56167   4.470000  33.53784  28.01484  28.88537  27.65114  28.88226  28.65821  33.53474  29.02191
      17  31.20694  29.34437         22.58048   4.470000  33.53474  29.02191  28.88226  28.65821  28.87915  29.66706  33.53163  30.03076
      17  31.20384  30.35410         22.59930   4.470000  33.53163  30.03076  28.87915  29.66706  28.87604  30.67768  33.52852  31.04139
      17  31.20072  31.36562         22.61814   4.470000  33.52852  31.04139  28.87604  30.67768  28.87293  31.69009  33.52540  32.05379
      17  31.19761  32.37892         22.63700   4.470000  33.52540  32.05379  28.87293  31.69009  28.86981  32.70428  33.52229  33.06798
      17  31.19449  33.39400         22.65587   4.470000  33.52229  33.06798  28.86981  32.70428  28.86669  33.72025  33.51917  34.08396
      17  31.19137  34.41087         22.67476   4.470000  33.51917  34.08396  28.86669  33.72025  28.86357  34.73802  33.51604  35.10172
      17  31.18825  35.42953         22.69366   4.470000  33.51604  35.10172  28.86357  34.73802  28.86045  35.75757  33.51292  36.12128
      17  31.18512  36.44999         22.71258   4.470000  33.51292  36.12128  28.86045  35.75757  28.85732  36.77893  33.50979  37.14264
      17  31.18199  37.47224         22.73152   4.470000  33.50979  37.14264  28.85732  36.77893  28.85419  37.80208  33.50666  38.16579
      17  31.17886  38.49629         22.75047   4.470000  33.50666  38.16579  28.85419  37.80208  28.85106  38.82704  33.50353  39.19074
      17  31.17573  39.52215         22.76944   4.470000  33.50353  39.19074  28.85106  38.82704  28.84793  39.85380  33.50040  40.21750
      17  31.17259  40.54981         22.78842   4.470000  33.50040  40.21750  28.84793  39.85380  28.84479  40.88236  33.49726  41.24607
      17  31.16946  41.57929         22.80742   4.470000  33.49726  41.24607  28.84479  40.88236  28.84165  41.91274  33.49412  42.27645
      17  31.16631  42.61057         22.82643   4.470000  33.49412  42.27645  28.84165  41.91274  28.83851  42.94494  33.49098  43.30864
      17  31.16317  43.64368         22.84546   4.470000  33.49098  43.30864  28.83851  42.94494  28.83536  43.97895  33.48783  44.34265
      17  31.16002  44.67860         22.86451   4.470000  33.48783  44.34265  28.83536  43.97895  28.83221  45.01478  33.48469  45.37849
      17  31.15688  45.71534         22.88357   4.470000  33.48469  45.37849  28.83221  45.01478  28.82906  46.05244  33.48154  46.41614
      17  31.15372  46.75391         22.90265   4.470000  33.48154  46.41614  28.82906  46.05244  28.82591  47.09192  33.47838  47.45562
      17  31.15057  47.79431         22.92174   4.470000  33.47838  47.45562  28.82591  47.09192  28.82276  48.13323  33.47523  48.49694
      17  31.14741  48.83653         22.94085   4.470000  33.47523  48.49694  28.82276  48.13323  28.81960  49.17637  33.47207  49.54008
      17  31.14425  49.88060         22.95997   4.470000  33.47207  49.54008  28.81960  49.17637  28.81644  50.22136  33.46891  50.58506
      17  31.14109  50.92650         22.97912   4.470000  33.46891  50.58506  28.81644  50.22136  28.81327  51.26818  33.46575  51.63188
      17  31.13793  51.97424         22.99827   4.470000  33.46575  51.63188  28.81327  51.26818  28.81011  52.31684  33.46258  52.68055
      17  31.13476  53.02383         23.01745   4.470000  33.46258  52.68055  28.81011  52.31684  28.80694  53.36735  33.45941  53.73105
      17  31.13159  54.07526         23.03663   4.470000  33.45941  53.73105  28.80694  53.36735  28.80377  54.41971  33.45624  54.78341
      17  31.12842  55.12854         23.05584   4.470000  33.45624  54.78341  28.80377  54.41971  28.80059  55.47392  33.45307  55.83762
      17  31.12524  56.18368         23.07506   4.470000  33.45307  55.83762  28.80059  55.47392  28.79742  56.52998  33.44989  56.89369
      17  31.12206  57.24067         23.09430   4.470000  33.44989  56.89369  28.79742  56.52998  28.79424  57.58790  33.44671  57.95161
      17  31.11888  58.29953         23.11355   4.470000  33.44671  57.95161  28.79424  57.58790  28.79106  58.64769  33.44353  59.01139
      17  31.11570  59.36024         23.13282   4.470000  33.44353  59.01139  28.79106  58.64769  28.78787  59.70934  33.44034  60.07304
      17  31.11251  60.42283         23.15211   4.470000  33.44034  60.07304  28.78787  59.70934  28.78468  60.77285  33.43716  61.13656
      17  31.10932  61.48728         23.17141   4.470000  33.43716  61.13656  28.78468  60.77285  28.78149  61.83824  33.43397  62.20195
      17  31.10613  62.55360         23.19073   4.470000  33.43397  62.20195  28.78149  61.83824  28.77830  62.90550  33.43077  63.26921
      17  31.10294  63.62180         23.21006   4.470000  33.43077  63.26921  28.77830  62.90550  28.77511  63.97464  33.42758  64.33835
      17  31.09974  64.69188         23.22941   4.470000  33.42758  64.33835  28.77511  63.97464  28.77191  65.04566  33.42438  65.40937
      17  31.09654  65.76385         23.24877   4.470000  33.42438  65.40937  28.77191  65.04566  28.76871  66.11857  33.42118  66.48228
      17  31.09334  66.83769         23.26816   4.470000  33.42118  66.48228  28.76871  66.11857  28.76550  67.19336  33.41798  67.55707
      17  31.09014  67.91343         23.28755   4.470000  33.41798  67.55707  28.76550  67.19336  28.76230  68.27004  33.41477  68.63375
      17  31.08693  68.99106         23.30697   4.470000  33.41477  68.63375  28.76230  68.27004  28.75909  69.34862  33.41156  69.71232
      17  31.08372  70.07058         23.32640   4.470000  33.41156  69.71232  28.75909  69.34862  28.75588  70.42909  33.40835  70.79280
      17  31.08051  71.15200         23.34585   4.470000  33.40835  70.79280  28.75588  70.42909  28.75266  71.51146  33.40514  71.87517
      17  31.07729  72.23533         23.36531   4.470000  33.40514  71.87517  28.75266  71.51146  28.74945  72.59574  33.40192  72.95944
      17  31.07407  73.32056         23.38479   4.470000  33.40192  72.95944  28.74945  72.59574  28.74623  73.68192  33.39870  74.04563
      17  31.07085  74.40769         23.40428   4.470000  33.39870  74.04563  28.74623  73.68192  28.74301  74.77001  33.39548  75.13372
      17  31.06763  75.49674         23.42380   4.470000  33.39548  75.13372  28.74301  74.77001  28.73978  75.86002  33.39225  76.22372
      17  31.06440  76.58771         23.44332   4.470000  33.39225  76.22372  28.73978  75.86002  28.73655  76.95194  33.38903  77.31565
      17  31.06118  77.68059         23.46287   4.470000  33.38903  77.31565  28.73655  76.95194  28.73332  78.04578  33.38580  78.40949
      17  31.05794  78.77539         23.48243   4.470000  33.38580  78.40949  28.73332  78.04578  28.73009  79.14155  33.38256  79.50525
      17  31.05471  79.87212         23.50201   4.470000  33.38256  79.50525  28.73009  79.14155  28.72686  80.23924  33.37933  80.60294
      17  31.05147  80.97077         23.52160   4.470000  33.37933  80.60294  28.72686  80.23924  28.72362  81.33886  33.37609  81.70256
      17  31.04823  82.07136         23.54121   4.470000  33.37609  81.70256  28.72362  81.33886  28.72038  82.44041  33.37285  82.80411
      17  31.04499  83.17388         23.56083   4.470000  33.37285  82.80411  28.72038  82.44041  28.71713  83.54390  33.36961  83.90760
      17  31.04175  84.27834         23.58048   4.470000  33.36961  83.90760  28.71713  83.54390  28.71389  84.64933  33.36636  85.01303
      17  31.03850  85.38474         23.60013   4.470000  33.36636  85.01303  28.71389  84.64933  28.71064  85.75670  33.36311  86.12040
      17  31.03525  86.49308         23.61981   4.470000  33.36311  86.12040  28.71064  85.75670  28.70739  86.86601  33.35986  87.22972
      17  31.03200  87.60337         23.63950   4.470000  33.35986  87.22972  28.70739  86.86601  28.70413  87.97728  33.35661  88.34099
      17  31.02874  88.71562         23.65921   4.470000  33.35661  88.34099  28.70413  87.97728  28.70088  89.09050  33.35335  89.45421
      17  31.02548  89.82981         23.67893   4.470000  33.35335  89.45421  28.70088  89.09050  28.69762  90.20568  33.35009  90.56938
      17  31.02222  90.94597         23.69867   4.470000  33.35009  90.56938  28.69762  90.20568  28.69435  91.32281  33.34683  91.68652
      17  31.01896  92.06408         23.71843   4.470000  33.34683  91.68652  28.69435  91.32281  28.69109  92.44191  33.34356  92.80562
      17  31.01569  93.18417         23.73820   4.470000  33.34356  92.80562  28.69109  92.44191  28.68782  93.56297  33.34029  93.92668
      17  31.01242  94.30621         23.75799   4.470000  33.34029  93.92668  28.68782  93.56297  28.68455  94.68601  33.33702  95.04971
      17  31.00915  95.43023         23.77780   4.470000  33.33702  95.04971  28.68455  94.68601  28.68128  95.81101  33.33375  96.17472
      17  31.00587  96.55623         23.79762   4.470000  33.33375  96.17472  28.68128  95.81101  28.67800  96.93800  33.33047  97.30170
      17  31.00260  97.68420         23.81746   4.470000  33.33047  97.30170  28.67800  96.93800  28.67472  98.06696  33.32719  98.43066
      17  30.99932  98.81415         23.83732   4.470000  33.32719  98.43066  28.67472  98.06696  28.67144  99.19790  33.32391  99.56161
      17  30.99603  99.94609         23.85719   4.470000  33.32391  99.56161  28.67144  99.19790  28.66816 100.33084  33.32063 100.69454
      17  30.99275 101.08002         23.87708   4.470000  33.32063 100.69454  28.66816 100.33084  28.66487 101.46576  33.31734 101.82946
      17  30.98946 102.21594         23.89699   4.470000  33.31734 101.82946  28.66487 101.46576  28.66158 102.60267  33.31405 102.96638
      17  30.98617 103.35385         23.91691   4.470000  33.31405 102.96638  28.66158 102.60267  28.65829 103.74158  33.31076 104.10529
      17  30.98287 104.49376         23.93685   4.470000  33.31076 104.10529  28.65829 103.74158  28.65499 104.88249  33.30746 105.24620
      17  30.97958 105.63567         23.95681   4.470000  33.30746 105.24620  28.65499 104.88249  28.65169 106.02541  33.30417 106.38912
      17  30.97628 106.77959         23.97678   4.470000  33.30417 106.38912  28.65169 106.02541  28.64839 107.17033  33.30086 107.53404
      17  30.97298 107.92552         23.99677   4.470000  33.30086 107.53404  28.64839 107.17033  28.64509 108.31726  33.29756 108.68097
      17  30.96967 109.07346         24.01677   4.470000  33.29756 108.68097  28.64509 108.31726  28.64178 109.46621  33.29425 109.82991
      17  30.96636 110.22341         24.03679   4.470000  33.29425 109.82991  28.64178 109.46621  28.63847 110.61717  33.29095 110.98088
      17  30.96305 111.37538         24.05683   4.470000  33.29095 110.98088  28.63847 110.61717  28.63516 111.77015  33.28763 112.13386
      17  30.95974 112.52938         24.07689   4.470000  33.28763 112.13386  28.63516 111.77015  28.63185 112.92516  33.28432 113.28887
      17  30.95642 113.68540         24.09696   4.470000  33.28432 113.28887  28.63185 112.92516  28.62853 114.08220  33.28100 114.44590
      17  30.95311 114.84345         24.11705   4.470000  33.28100 114.44590  28.62853 114.08220  28.62521 115.24126  33.27768 115.60497
      17  30.94978 116.00353         24.13716   4.470000  33.27768 115.60497  28.62521 115.24126  28.62189 116.40236  33.27436 116.76607
      17  30.94646 117.16565         24.15728   4.470000  33.27436 116.76607  28.62189 116.40236  28.61856 117.56550  33.27103 117.92921
      17  30.94313 118.32981         24.17742   4.470000  33.27103 117.92921  28.61856 117.56550  28.61523 118.73068  33.26771 119.09439
      17  30.93980 119.49602         24.19758   4.470000  33.26771 119.09439  28.61523 118.73068  28.61190 119.89791  33.26437 120.26162
      17  30.93647 120.66426         24.21775   4.470000  33.26437 120.26162  28.61190 119.89791  28.60857 121.06718  33.26104 121.43089
      17  30.93314 121.83456         24.23794   4.470000  33.26104 121.43089  28.60857 121.06718  28.60523 122.23851  33.25770 122.60221
      17  30.92980 123.00692         24.25814   4.470000  33.25770 122.60221  28.60523 122.23851  28.60189 123.41189  33.25436 123.77560
      17  30.92646 124.18133         24.27837   4.470000  33.25436 123.77560  28.60189 123.41189  28.59855 124.58733  33.25102 124.95104
      17  30.92311 125.35780         24.29861   4.470000  33.25102 124.95104  28.59855 124.58733  28.59520 125.76483  33.24768 126.12854
      17  30.91977 126.53633         24.31887   4.470000  33.24768 126.12854  28.59520 125.76483  28.59186 126.94440  33.24433 127.30811
      17  30.91642 127.71694         24.33914   4.470000  33.24433 127.30811  28.59186 126.94440  28.58851 128.12604  33.24098 128.48974
      16  41.10947  -0.11156         23.40428   5.590000  43.42897  -0.37097  38.78449  -0.82554  38.78996   0.14808  43.43444   0.60266
      16  41.11494   0.86294         23.42380   5.590000  43.43444   0.60266  38.78996   0.14808  38.79544   1.12344  43.43992   1.57802
      16  41.12042   1.83916         23.44332   5.590000  43.43992   1.57802  38.79544   1.12344  38.80092   2.10054  43.44540   2.55512
      16  41.12590   2.81713         23.46287   5.590000  43.44540   2.55512  38.80092   2.10054  38.80641   3.07938  43.45088   3.53395
      16  41.13139   3.79684         23.48243   5.590000  43.45088   3.53395  38.80641   3.07938  38.81190   4.05995  43.45637   4.51453
      16  41.13689   4.77829         23.50201   5.590000  43.45637   4.51453  38.81190   4.05995  38.81740   5.04228  43.46187   5.49686
      16  41.14238   5.76149         23.52160   5.590000  43.46187   5.49686  38.81740   5.04228  38.82290   6.02635  43.46737   6.48093
      16  41.14789   6.74644         23.54121   5.590000  43.46737   6.48093  38.82290   6.02635  38.82840   7.01218  43.47287   7.46675
      16  41.15339   7.73314         23.56083   5.590000  43.47287   7.46675  38.82840   7.01218  38.83391   7.99976  43.47838   8.45433
      16  41.15890   8.72160         23.58048   5.590000  43.47838   8.45433  38.83391   7.99976  38.83942   8.98910  43.48390   9.44367
      16  41.16442   9.71182         23.60013   5.590000  43.48390   9.44367  38.83942   8.98910  38.84494   9.98019  43.48942  10.43477
      16  41.16994  10.70380         23.61981   5.590000  43.48942  10.43477  38.84494   9.98019  38.85046  10.97306  43.49494  11.42763
      16  41.17547  11.69754         23.63950   5.590000  43.49494  11.42763  38.85046  10.97306  38.85599  11.96769  43.50047  12.42226
      16  41.18100  12.69306         23.65921   5.590000  43.50047  12.42226  38.85599  11.96769  38.86152  12.96408  43.50600  13.41866
      16  41.18653  13.69034         23.67893   5.590000  43.50600  13.41866  38.86152  12.96408  38.86706  13.96226  43.51153  14.41683
      16  41.19207  14.68940         23.69867   5.590000  43.51153  14.41683  38.86706  13.96226  38.87260  14.96221  43.51708  15.41678
      16  41.19761  15.69024         23.71843   5.590000  43.51708  15.41678  38.87260  14.96221  38.87815  15.96393  43.52262  16.41851
      16  41.20316  16.69286         23.73820   5.590000  43.52262  16.41851  38.87815  15.96393  38.88370  16.96744  43.52817  17.42202
      16  41.20871  17.69726         23.75799   5.590000  43.52817  17.42202  38.88370  16.96744  38.88925  17.97274  43.53373  18.42731
      16  41.21427  18.70345         23.77780   5.590000  43.53373  18.42731  38.88925  17.97274  38.89481  18.97982  43.53929  19.43440
      16  41.21983  19.71143         23.79762   5.590000  43.53929  19.43440  38.89481  18.97982  38.90038  19.98869  43.54485  20.44327
      16  41.22540  20.72120         23.81746   5.590000  43.54485  20.44327  38.90038  19.98869  38.90595  20.99936  43.55042  21.45394
      16  41.23097  21.73276         23.83732   5.590000  43.55042  21.45394  38.90595  20.99936  38.91152  22.01183  43.55600  22.46641
      16  41.23655  22.74613         23.85719   5.590000  43.55600  22.46641  38.91152  22.01183  38.91710  23.02610  43.56157  23.48067
      16  41.24213  23.76130         23.87708   5.590000  43.56157  23.48067  38.91710  23.02610  38.92268  24.04217  43.56716  24.49674
      16  41.24771  24.77827         23.89699   5.590000  43.56716  24.49674  38.92268  24.04217  38.92827  25.06004  43.57275  25.51462
      16  41.25330  25.79705         23.91691   5.590000  43.57275  25.51462  38.92827  25.06004  38.93386  26.07973  43.57834  26.53431
      16  41.25890  26.81765         23.93685   5.590000  43.57834  26.53431  38.93386  26.07973  38.93946  27.10123  43.58393  27.55581
      16  41.26450  27.84006         23.95681   5.590000  43.58393  27.55581  38.93946  27.10123  38.94506  28.12455  43.58954  28.57912
      16  41.27010  28.86428         23.97678   5.590000  43.58954  28.57912  38.94506  28.12455  38.95067  29.14968  43.59514  29.60426
      16  41.27571  29.89033         23.99677   5.590000  43.59514  29.60426  38.95067  29.14968  38.95628  30.17664  43.60075  30.63122
      16  41.28132  30.91820         24.01677   5.590000  43.60075  30.63122  38.95628  30.17664  38.96190  31.20542  43.60637  31.66000
      16  41.28694  31.94790         24.03679   5.590000  43.60637  31.66000  38.96190  31.20542  38.96752  32.23604  43.61199  32.69061
      16  41.29257  32.97943         24.05683   5.590000  43.61199  32.69061  38.96752  32.23604  38.97314  33.26848  43.61762  33.72306
      16  41.29819  34.01279         24.07689   5.590000  43.61762  33.72306  38.97314  33.26848  38.97877  34.30276  43.62324  34.75734
      16  41.30383  35.04798         24.09696   5.590000  43.62324  34.75734  38.97877  34.30276  38.98441  35.33888  43.62888  35.79345
      16  41.30946  36.08502         24.11705   5.590000  43.62888  35.79345  38.98441  35.33888  38.99004  36.37684  43.63452  36.83141
      16  41.31510  37.12390         24.13716   5.590000  43.63452  36.83141  38.99004  36.37684  38.99569  37.41664  43.64016  37.87121
      16  41.32075  38.16463         24.15728   5.590000  43.64016  37.87121  38.99569  37.41664  39.00134  38.45829  43.64581  38.91286
      16  41.32640  39.20720         24.17742   5.590000  43.64581  38.91286  39.00134  38.45829  39.00699  39.50179  43.65146  39.95637
      16  41.33206  40.25163         24.19758   5.590000  43.65146  39.95637  39.00699  39.50179  39.01265  40.54714  43.65712  41.00172
      16  41.33772  41.29792         24.21775   5.590000  43.65712  41.00172  39.01265  40.54714  39.01831  41.59436  43.66279  42.04893
      16  41.34338  42.34606         24.23794   5.590000  43.66279  42.04893  39.01831  41.59436  39.02398  42.64343  43.66845  43.09801
      16  41.34905  43.39606         24.25814   5.590000  43.66845  43.09801  39.02398  42.64343  39.02965  43.69437  43.67413  44.14894
      16  41.35473  44.44793         24.27837   5.590000  43.67413  44.14894  39.02965  43.69437  39.03533  44.74717  43.67980  45.20175
      16  41.36041  45.50167         24.29861   5.590000  43.67980  45.20175  39.03533  44.74717  39.04101  45.80184  43.68548  46.25642
      16  41.36609  46.55728         24.31887   5.590000  43.68548  46.25642  39.04101  45.80184  39.04670  46.85839  43.69117  47.31296
      16  41.37178  47.61476         24.33914   5.590000  43.69117  47.31296  39.04670  46.85839  39.05239  47.91681  43.69686  48.37139
      16  41.37747  48.67412         24.35943   5.590000  43.69686  48.37139  39.05239  47.91681  39.05808  48.97711  43.70256  49.43169
      16  41.38317  49.73537         24.37974   5.590000  43.70256  49.43169  39.05808  48.97711  39.06378  50.03930  43.70826  50.49387
      16  41.38887  50.79850         24.40006   5.590000  43.70826  50.49387  39.06378  50.03930  39.06949  51.10337  43.71396  51.55794
      16  41.39458  51.86351         24.42041   5.590000  43.71396  51.55794  39.06949  51.10337  39.07520  52.16933  43.71967  52.62390
      16  41.40029  52.93042         24.44076   5.590000  43.71967  52.62390  39.07520  52.16933  39.08091  53.23718  43.72539  53.69176
      16  41.40601  53.99922         24.46114   5.590000  43.72539  53.69176  39.08091  53.23718  39.08663  54.30693  43.73111  54.76151
      16  41.41173  55.06992         24.48153   5.590000  43.73111  54.76151  39.08663  54.30693  39.09236  55.37858  43.73683  55.83315
      16  41.41746  56.14251         24.50194   5.590000  43.73683  55.83315  39.09236  55.37858  39.09809  56.45213  43.74256  56.90670
      16  41.42319  57.21702         24.52237   5.590000  43.74256  56.90670  39.09809  56.45213  39.10382  57.52758  43.74830  57.98216
      16  41.42893  58.29343         24.54281   5.590000  43.74830  57.98216  39.10382  57.52758  39.10956  58.60495  43.75403  59.05952
      16  41.43467  59.37175         24.56327   5.590000  43.75403  59.05952  39.10956  58.60495  39.11530  59.68423  43.75978  60.13880
      16  41.44042  60.45198         24.58375   5.590000  43.75978  60.13880  39.11530  59.68423  39.12105  60.76542  43.76553  61.21999
      16  41.44617  61.53413         24.60425   5.590000  43.76553  61.21999  39.12105  60.76542  39.12681  61.84853  43.77128  62.30310
      16  41.45192  62.61821         24.62476   5.590000  43.77128  62.30310  39.12681  61.84853  39.13256  62.93356  43.77704  63.38814
      16  41.45768  63.70420         24.64529   5.590000  43.77704  63.38814  39.13256  62.93356  39.13833  64.02052  43.78280  64.47510
      16  41.46345  64.79212         24.66584   5.590000  43.78280  64.47510  39.13833  64.02052  39.14409  65.10941  43.78857  65.56398
      16  41.46922  65.88198         24.68640   5.590000  43.78857  65.56398  39.14409  65.10941  39.14987  66.20023  43.79434  66.65480
      16  41.47499  66.97376         24.70698   5.590000  43.79434  66.65480  39.14987  66.20023  39.15564  67.29298  43.80012  67.74756
      16  41.48077  68.06749         24.72758   5.590000  43.80012  67.74756  39.15564  67.29298  39.16143  68.38767  43.80590  68.84225
      16  41.48656  69.16315         24.74819   5.590000  43.80590  68.84225  39.16143  68.38767  39.16721  69.48431  43.81169  69.93888
      16  41.49234  70.26076         24.76882   5.590000  43.81169  69.93888  39.16721  69.48431  39.17300  70.58289  43.81748  71.03746
      16  41.49814  71.36031         24.78947   5.590000  43.81748  71.03746  39.17300  70.58289  39.17880  71.68342  43.82327  72.13799
      16  41.50394  72.46182         24.81014   5.590000  43.82327  72.13799  39.17880  71.68342  39.18460  72.78590  43.82908  73.24047
      16  41.50974  73.56527         24.83082   5.590000  43.82908  73.24047  39.18460  72.78590  39.19041  73.89033  43.83488  74.34491
      16  41.51555  74.67069         24.85152   5.590000  43.83488  74.34491  39.19041  73.89033  39.19622  74.99673  43.84069  75.45130
      16  41.52136  75.77806         24.87224   5.590000  43.84069  75.45130  39.19622  74.99673  39.20203  76.10508  43.84651  76.55966
      16  41.52718  76.88740         24.89298   5.590000  43.84651  76.55966  39.20203  76.10508  39.20785  77.21541  43.85233  77.66998
      16  41.53300  77.99871         24.91373   5.590000  43.85233  77.66998  39.20785  77.21541  39.21368  78.32770  43.85815  78.78227
      16  41.53883  79.11199         24.93450   5.590000  43.85815  78.78227  39.21368  78.32770  39.21951  79.44196  43.86398  79.89654
      16  41.54467  80.22724         24.95529   5.590000  43.86398  79.89654  39.21951  79.44196  39.22535  80.55820  43.86982  81.01277
      16  41.55050  81.34446         24.97609   5.590000  43.86982  81.01277  39.22535  80.55820  39.23119  81.67642  43.87566  82.13099
      16  41.55635  82.46367         24.99692   5.590000  43.87566  82.13099  39.23119  81.67642  39.23703  82.79662  43.88150  83.25119
      16  41.56219  83.58487         25.01775   5.590000  43.88150  83.25119  39.23703  82.79662  39.24288  83.91880  43.88735  84.37338
      16  41.56805  84.70805         25.03861   5.590000  43.88735  84.37338  39.24288  83.91880  39.24874  85.04298  43.89321  85.49755
      16  41.57390  85.83322         25.05949   5.590000  43.89321  85.49755  39.24874  85.04298  39.25460  86.16914  43.89907  86.62372
      16  41.57976  86.96038         25.08038   5.590000  43.89907  86.62372  39.25460  86.16914  39.26046  87.29731  43.90493  87.75188
      16  41.58563  88.08954         25.10129   5.590000  43.90493  87.75188  39.26046  87.29731  39.26633  88.42747  43.91080  88.88205
      16  41.59150  89.22071         25.12221   5.590000  43.91080  88.88205  39.26633  88.42747  39.27220  89.55964  43.91668  90.01421
      16  41.59738  90.35388         25.14316   5.590000  43.91668  90.01421  39.27220  89.55964  39.27808  90.69381  43.92256  91.14838
      16  41.60326  91.48905         25.16412   5.590000  43.92256  91.14838  39.27808  90.69381  39.28397  91.82999  43.92844  92.28456
      16  41.60915  92.62624         25.18510   5.590000  43.92844  92.28456  39.28397  91.82999  39.28986  92.96818  43.93433  93.42276
      16  41.61504  93.76544         25.20609   5.590000  43.93433  93.42276  39.28986  92.96818  39.29575  94.10839  43.94022  94.56297
      16  41.62094  94.90666         25.22711   5.590000  43.94022  94.56297  39.29575  94.10839  39.30165  95.25063  43.94612  95.70520
      16  41.62684  96.04991         25.24814   5.590000  43.94612  95.70520  39.30165  95.25063  39.30755  96.39488  43.95203  96.84946
      16  41.63274  97.19518         25.26919   5.590000  43.95203  96.84946  39.30755  96.39488  39.31346  97.54116  43.95793  97.99574
      16  41.63865  98.34247         25.29025   5.590000  43.95793  97.99574  39.31346  97.54116  39.31937  98.68948  43.96385  99.14405
      16  41.64457  99.49180         25.31134   5.590000  43.96385  99.14405  39.31937  98.68948  39.32529  99.83982  43.96977 100.29440
      16  41.65049 100.64317         25.33244   5.590000  43.96977 100.29440  39.32529  99.83982  39.33122 100.99221  43.97569 101.44678
      16  41.65642 101.79657         25.35356   5.590000  43.97569 101.44678  39.33122 100.99221  39.33714 102.14663  43.98162 102.60121
      16  41.66235 102.95202         25.37470   5.590000  43.98162 102.60121  39.33714 102.14663  39.34308 103.30310  43.98755 103.75768
      16  41.66828 104.10951         25.39585   5.590000  43.98755 103.75768  39.34308 103.30310  39.34902 104.46162  43.99349 104.91620
      16  41.67422 105.26906         25.41702   5.590000  43.99349 104.91620  39.34902 104.46162  39.35496 105.62219  43.99943 106.07677
      16  41.68017 106.43065         25.43821   5.590000  43.99943 106.07677  39.35496 105.62219  39.36091 106.78481  44.00538 107.23939
      16  41.68612 107.59431         25.45942   5.590000  44.00538 107.23939  39.36091 106.78481  39.36686 107.94950  44.01133 108.40407
      16  41.69208 108.76002         25.48064   5.590000  44.01133 108.40407  39.36686 107.94950  39.37282 109.11624  44.01729 109.57082
      16  41.69804 109.92780         25.50189   5.590000  44.01729 109.57082  39.37282 109.11624  39.37878 110.28505  44.02326 110.73963
      16  41.70400 111.09764         25.52315   5.590000  44.02326 110.73963  39.37878 110.28505  39.38475 111.45593  44.02922 111.91051
      16  41.70997 112.26956         25.54443   5.590000  44.02922 111.91051  39.38475 111.45593  39.39072 112.62888  44.03520 113.08346
      16  41.71595 113.44355         25.56572   5.590000  44.03520 113.08346  39.39072 112.62888  39.39670 113.80391  44.04117 114.25849
      16  41.72193 114.61962         25.58703   5.590000  44.04117 114.25849  39.39670 113.80391  39.40268 114.98102  44.04716 115.43560
      16  41.72791 115.79777         25.60837   5.590000  44.04716 115.43560  39.40268 114.98102  39.40867 116.16021  44.05314 116.61479
      16  41.73390 116.97800         25.62972   5.590000  44.05314 116.61479  39.40867 116.16021  39.41466 117.34149  44.05914 117.79607
      16  41.73990 118.16033         25.65108   5.590000  44.05914 117.79607  39.41466 117.34149  39.42066 118.52486  44.06514 118.97944
      16  41.74590 119.34475         25.67247   5.590000  44.06514 118.97944  39.42066 118.52486  39.42666 119.71033  44.07114 120.16490
      16  41.75191 120.53126         25.69387   5.590000  44.07114 120.16490  39.42666 119.71033  39.43267 120.89789  44.07715 121.35247
      16  41.75792 121.71987         25.71529   5.590000  44.07715 121.35247  39.43267 120.89789  39.43869 122.08755  44.08316 122.54213
      16  41.76393 122.91059         25.73673   5.590000  44.08316 122.54213  39.43869 122.08755  39.44470 123.27932  44.08918 123.73390
      16  41.76995 124.10341         25.75818   5.590000  44.08918 123.73390  39.44470 123.27932  39.45073 124.47320  44.09520 124.92777
      16  41.77598 125.29834         25.77966   5.590000  44.09520 124.92777  39.45073 124.47320  39.45675 125.66919  44.10123 126.12376
      16  41.78201 126.49539         25.80115   5.590000  44.10123 126.12376  39.45675 125.66919  39.46279 126.86729  44.10726 127.32187
      16  41.78804 127.69455         25.82266   5.590000  44.10726 127.32187  39.46279 126.86729  39.46883 128.06752  44.11330 128.52209
      15  52.12449  -0.13537         24.93450   6.820000  54.43385  -0.34337  49.80021  -0.89754  49.81512   0.07285  54.44876   0.62702
      15  52.13940   0.83588         24.95529   6.820000  54.44876   0.62702  49.81512   0.07285  49.83004   1.04497  54.46369   1.59914
      15  52.15433   1.80886         24.97609   6.820000  54.46369   1.59914  49.83004   1.04497  49.84498   2.01881  54.47862   2.57298
      15  52.16927   2.78357         24.99692   6.820000  54.47862   2.57298  49.84498   2.01881  49.85992   2.99439  54.49357   3.54856
      15  52.18423   3.76001         25.01775   6.820000  54.49357   3.54856  49.85992   2.99439  49.87488   3.97169  54.50853   4.52586
      15  52.19919   4.73819         25.03861   6.820000  54.50853   4.52586  49.87488   3.97169  49.88986   4.95074  54.52350   5.50491
      15  52.21417   5.71810         25.05949   6.820000  54.52350   5.50491  49.88986   4.95074  49.90484   5.93152  54.53849   6.48569
      15  52.22916   6.69976         25.08038   6.820000  54.53849   6.48569  49.90484   5.93152  49.91984   6.91405  54.55348   7.46822
      15  52.24417   7.68316         25.10129   6.820000  54.55348   7.46822  49.91984   6.91405  49.93485   7.89832  54.56849   8.45249
      15  52.25918   8.66830         25.12221   6.820000  54.56849   8.45249  49.93485   7.89832  49.94987   8.88435  54.58352   9.43852
      15  52.27421   9.65520         25.14316   6.820000  54.58352   9.43852  49.94987   8.88435  49.96490   9.87212  54.59855  10.42629
      15  52.28925  10.64385         25.16412   6.820000  54.59855  10.42629  49.96490   9.87212  49.97995  10.86165  54.61360  11.41582
      15  52.30431  11.63426         25.18510   6.820000  54.61360  11.41582  49.97995  10.86165  49.99501  11.85294  54.62866  12.40711
      15  52.31937  12.62643         25.20609   6.820000  54.62866  12.40711  49.99501  11.85294  50.01008  12.84598  54.64373  13.40015
      15  52.33445  13.62036         25.22711   6.820000  54.64373  13.40015  50.01008  12.84598  50.02517  13.84080  54.65882  14.39497
      15  52.34954  14.61605         25.24814   6.820000  54.65882  14.39497  50.02517  13.84080  50.04027  14.83738  54.67391  15.39155
      15  52.36465  15.61352         25.26919   6.820000  54.67391  15.39155  50.04027  14.83738  50.05538  15.83572  54.68902  16.38989
      15  52.37976  16.61275         25.29025   6.820000  54.68902  16.38989  50.05538  15.83572  50.07050  16.83585  54.70415  17.39002
      15  52.39489  17.61376         25.31134   6.820000  54.70415  17.39002  50.07050  16.83585  50.08564  17.83774  54.71928  18.39191
      15  52.41003  18.61655         25.33244   6.820000  54.71928  18.39191  50.08564  17.83774  50.10078  18.84142  54.73443  19.39559
      15  52.42519  19.62112         25.35356   6.820000  54.73443  19.39559  50.10078  18.84142  50.11594  19.84688  54.74959  20.40105
      15  52.44035  20.62747         25.37470   6.820000  54.74959  20.40105  50.11594  19.84688  50.13112  20.85413  54.76476  21.40830
      15  52.45553  21.63561         25.39585   6.820000  54.76476  21.40830  50.13112  20.85413  50.14630  21.86316  54.77995  22.41733
      15  52.47073  22.64554         25.41702   6.820000  54.77995  22.41733  50.14630  21.86316  50.16150  22.87398  54.79515  23.42815
      15  52.48593  23.65726         25.43821   6.820000  54.79515  23.42815  50.16150  22.87398  50.17671  23.88660  54.81036  24.44077
      15  52.50115  24.67078         25.45942   6.820000  54.81036  24.44077  50.17671  23.88660  50.19194  24.90102  54.82558  25.45519
      15  52.51638  25.68609         25.48064   6.820000  54.82558  25.45519  50.19194  24.90102  50.20717  25.91724  54.84082  26.47141
      15  52.53162  26.70321         25.50189   6.820000  54.84082  26.47141  50.20717  25.91724  50.22242  26.93526  54.85607  27.48943
      15  52.54688  27.72214         25.52315   6.820000  54.85607  27.48943  50.22242  26.93526  50.23769  27.95509  54.87133  28.50926
      15  52.56215  28.74287         25.54443   6.820000  54.87133  28.50926  50.23769  27.95509  50.25296  28.97673  54.88661  29.53089
      15  52.57743  29.76542         25.56572   6.820000  54.88661  29.53089  50.25296  28.97673  50.26825  30.00018  54.90189  30.55435
      15  52.59272  30.78977         25.58703   6.820000  54.90189  30.55435  50.26825  30.00018  50.28355  31.02544  54.91719  31.57961
      15  52.60803  31.81595         25.60837   6.820000  54.91719  31.57961  50.28355  31.02544  50.29886  32.05253  54.93251  32.60670
      15  52.62335  32.84395         25.62972   6.820000  54.93251  32.60670  50.29886  32.05253  50.31419  33.08144  54.94783  33.63561
      15  52.63868  33.87377         25.65108   6.820000  54.94783  33.63561  50.31419  33.08144  50.32953  34.11217  54.96317  34.66634
      15  52.65402  34.90542         25.67247   6.820000  54.96317  34.66634  50.32953  34.11217  50.34488  35.14474  54.97852  35.69891
      15  52.66938  35.93890         25.69387   6.820000  54.97852  35.69891  50.34488  35.14474  50.36024  36.17913  54.99389  36.73330
      15  52.68475  36.97421         25.71529   6.820000  54.99389  36.73330  50.36024  36.17913  50.37562  37.21536  55.00926  37.76953
      15  52.70014  38.01136         25.73673   6.820000  55.00926  37.76953  50.37562  37.21536  50.39101  38.25343  55.02465  38.80760
      15  52.71553  39.05035         25.75818   6.820000  55.02465  38.80760  50.39101  38.25343  50.40641  39.29334  55.04006  39.84751
      15  52.73094  40.09118         25.77966   6.820000  55.04006  39.84751  50.40641  39.29334  50.42183  40.33510  55.05547  40.88927
      15  52.74636  41.13386         25.80115   6.820000  55.05547  40.88927  50.42183  40.33510  50.43725  41.37870  55.07090  41.93287
      15  52.76180  42.17839         25.82266   6.820000  55.07090  41.93287  50.43725  41.37870  50.45270  42.42415  55.08634  42.97832
      15  52.77725  43.22477         25.84419   6.820000  55.08634  42.97832  50.45270  42.42415  50.46815  43.47146  55.10180  44.02563
      15  52.79271  44.27300         25.86573   6.820000  55.10180  44.02563  50.46815  43.47146  50.48362  44.52062  55.11726  45.07479
      15  52.80818  45.32310         25.88730   6.820000  55.11726  45.07479  50.48362  44.52062  50.49910  45.57165  55.13274  46.12582
      15  52.82367  46.37505         25.90888   6.820000  55.13274  46.12582  50.49910  45.57165  50.51459  46.62454  55.14823  47.17870
      15  52.83916  47.42887         25.93048   6.820000  55.14823  47.17870  50.51459  46.62454  50.53009  47.67929  55.16374  48.23346
      15  52.85468  48.48456         25.95210   6.820000  55.16374  48.23346  50.53009  47.67929  50.54561  48.73591  55.17926  49.29008
      15  52.87020  49.54212         25.97373   6.820000  55.17926  49.29008  50.54561  48.73591  50.56114  49.79441  55.19479  50.34858
      15  52.88574  50.60156         25.99539   6.820000  55.19479  50.34858  50.56114  49.79441  50.57669  50.85479  55.21033  51.40896
      15  52.90129  51.66287         26.01706   6.820000  55.21033  51.40896  50.57669  50.85479  50.59225  51.91704  55.22589  52.47121
      15  52.91685  52.72607         26.03875   6.820000  55.22589  52.47121  50.59225  51.91704  50.60782  52.98118  55.24146  53.53535
      15  52.93243  53.79115         26.06046   6.820000  55.24146  53.53535  50.60782  52.98118  50.62340  54.04720  55.25705  54.60137
      15  52.94802  54.85812         26.08218   6.820000  55.25705  54.60137  50.62340  54.04720  50.63900  55.11511  55.27264  55.66928
      15  52.96362  55.92698         26.10393   6.820000  55.27264  55.66928  50.63900  55.11511  50.65461  56.18492  55.28825  56.73909
      15  52.97924  56.99773         26.12569   6.820000  55.28825  56.73909  50.65461  56.18492  50.67023  57.25662  55.30387  57.81079
      15  52.99487  58.07038         26.14747   6.820000  55.30387  57.81079  50.67023  57.25662  50.68586  58.33022  55.31951  58.88439
      15  53.01051  59.14493         26.16927   6.820000  55.31951  58.88439  50.68586  58.33022  50.70151  59.40572  55.33516  59.95989
      15  53.02617  60.22138         26.19109   6.820000  55.33516  59.95989  50.70151  59.40572  50.71717  60.48313  55.35082  61.03730
      15  53.04183  61.29975         26.21292   6.820000  55.35082  61.03730  50.71717  60.48313  50.73285  61.56245  55.36649  62.11661
      15  53.05751  62.38002         26.23477   6.820000  55.36649  62.11661  50.73285  61.56245  50.74854  62.64367  55.38218  63.19784
      15  53.07321  63.46220         26.25665   6.820000  55.38218  63.19784  50.74854  62.64367  50.76424  63.72682  55.39788  64.28099
      15  53.08892  64.54631         26.27853   6.820000  55.39788  64.28099  50.76424  63.72682  50.77995  64.81188  55.41360  65.36605
      15  53.10464  65.63233         26.30044   6.820000  55.41360  65.36605  50.77995  64.81188  50.79568  65.89887  55.42932  66.45304
      15  53.12037  66.72028         26.32237   6.820000  55.42932  66.45304  50.79568  65.89887  50.81142  66.98778  55.44506  67.54195
      15  53.13612  67.81015         26.34431   6.820000  55.44506  67.54195  50.81142  66.98778  50.82717  68.07862  55.46082  68.63279
      15  53.15188  68.90196         26.36628   6.820000  55.46082  68.63279  50.82717  68.07862  50.84294  69.17139  55.47658  69.72556
      15  53.16765  69.99570         26.38826   6.820000  55.47658  69.72556  50.84294  69.17139  50.85872  70.26609  55.49236  70.82026
      15  53.18343  71.09137         26.41026   6.820000  55.49236  70.82026  50.85872  70.26609  50.87451  71.36274  55.50815  71.91691
      15  53.19923  72.18899         26.43227   6.820000  55.50815  71.91691  50.87451  71.36274  50.89031  72.46132  55.52396  73.01549
      15  53.21505  73.28855         26.45431   6.820000  55.52396  73.01549  50.89031  72.46132  50.90613  73.56186  55.53978  74.11603
      15  53.23087  74.39005         26.47636   6.820000  55.53978  74.11603  50.90613  73.56186  50.92196  74.66434  55.55561  75.21851
      15  53.24671  75.49351         26.49844   6.820000  55.55561  75.21851  50.92196  74.66434  50.93781  75.76877  55.57146  76.32294
      15  53.26256  76.59892         26.52053   6.820000  55.57146  76.32294  50.93781  75.76877  50.95367  76.87516  55.58731  77.42933
      15  53.27843  77.70629         26.54264   6.820000  55.58731  77.42933  50.95367  76.87516  50.96954  77.98350  55.60319  78.53767
      15  53.29431  78.81561         26.56477   6.820000  55.60319  78.53767  50.96954  77.98350  50.98543  79.09381  55.61907  79.64798
      15  53.31020  79.92690         26.58691   6.820000  55.61907  79.64798  50.98543  79.09381  51.00132  80.20609  55.63497  80.76025
      15  53.32610  81.04016         26.60908   6.820000  55.63497  80.76025  51.00132  80.20609  51.01723  81.32033  55.65088  81.87450
      15  53.34202  82.15539         26.63126   6.820000  55.65088  81.87450  51.01723  81.32033  51.03316  82.43654  55.66681  82.99071
      15  53.35795  83.27259         26.65346   6.820000  55.66681  82.99071  51.03316  82.43654  51.04910  83.55473  55.68274  84.10890
      15  53.37390  84.39177         26.67568   6.820000  55.68274  84.10890  51.04910  83.55473  51.06505  84.67490  55.69869  85.22907
      15  53.38985  85.51293         26.69792   6.820000  55.69869  85.22907  51.06505  84.67490  51.08101  85.79705  55.71466  86.35122
      15  53.40583  86.63607         26.72018   6.820000  55.71466  86.35122  51.08101  85.79705  51.09699  86.92119  55.73064  87.47536
      15  53.42181  87.76120         26.74246   6.820000  55.73064  87.47536  51.09699  86.92119  51.11298  88.04731  55.74663  88.60148
      15  53.43781  88.88833         26.76475   6.820000  55.74663  88.60148  51.11298  88.04731  51.12899  89.17543  55.76263  89.72960
      15  53.45382  90.01744         26.78706   6.820000  55.76263  89.72960  51.12899  89.17543  51.14500  90.30555  55.77865  90.85972
      15  53.46984  91.14856         26.80940   6.820000  55.77865  90.85972  51.14500  90.30555  51.16104  91.43766  55.79468  91.99183
      15  53.48588  92.28167         26.83175   6.820000  55.79468  91.99183  51.16104  91.43766  51.17708  92.57178  55.81073  93.12595
      15  53.50193  93.41679         26.85412   6.820000  55.81073  93.12595  51.17708  92.57178  51.19314  93.70790  55.82678  94.26207
      15  53.51800  94.55392         26.87650   6.820000  55.82678  94.26207  51.19314  93.70790  51.20921  94.84603  55.84286  95.40020
      15  53.53407  95.69306         26.89891   6.820000  55.84286  95.40020  51.20921  94.84603  51.22529  95.98618  55.85894  96.54035
      15  53.55017  96.83421         26.92134   6.820000  55.85894  96.54035  51.22529  95.98618  51.24139  97.12834  55.87504  97.68251
      15  53.56627  97.97738         26.94378   6.820000  55.87504  97.68251  51.24139  97.12834  51.25750  98.27252  55.89115  98.82669
      15  53.58239  99.12257         26.96624   6.820000  55.89115  98.82669  51.25750  98.27252  51.27363  99.41873  55.90727  99.97290
      15  53.59852 100.26979         26.98872   6.820000  55.90727  99.97290  51.27363  99.41873  51.28977 100.56696  55.92341 101.12113
      15  53.61467 101.41904         27.01122   6.820000  55.92341 101.12113  51.28977 100.56696  51.30592 101.71722  55.93957 102.27139
      15  53.63082 102.57032         27.03374   6.820000  55.93957 102.27139  51.30592 101.71722  51.32208 102.86952  55.95573 103.42369
      15  53.64700 103.72364         27.05628   6.820000  55.95573 103.42369  51.32208 102.86952  51.33826 104.02385  55.97191 104.57802
      15  53.66318 104.87899         27.07884   6.820000  55.97191 104.57802  51.33826 104.02385  51.35446 105.18023  55.98810 105.73440
      15  53.67938 106.03639         27.10141   6.820000  55.98810 105.73440  51.35446 105.18023  51.37066 106.33865  56.00431 106.89282
      15  53.69559 107.19583         27.12400   6.820000  56.00431 106.89282  51.37066 106.33865  51.38688 107.49911  56.02053 108.05328
      15  53.71182 108.35732         27.14662   6.820000  56.02053 108.05328  51.38688 107.49911  51.40311 108.66163  56.03676 109.21580
      15  53.72806 109.52087         27.16925   6.820000  56.03676 109.21580  51.40311 108.66163  51.41936 109.82621  56.05301 110.38038
      15  53.74431 110.68647         27.19190   6.820000  56.05301 110.38038  51.41936 109.82621  51.43562 110.99284  56.06927 111.54701
      15  53.76058 111.85413         27.21457   6.820000  56.06927 111.54701  51.43562 110.99284  51.45189 112.16153  56.08554 112.71570
      15  53.77686 113.02386         27.23726   6.820000  56.08554 112.71570  51.45189 112.16153  51.46818 113.33229  56.10183 113.88646
      15  53.79315 114.19565         27.25996   6.820000  56.10183 113.88646  51.46818 113.33229  51.48448 114.50512  56.11813 115.05929
      15  53.80946 115.36952         27.28269   6.820000  56.11813 115.05929  51.48448 114.50512  51.50080 115.68002  56.13444 116.23419
      15  53.82578 116.54546         27.30544   6.820000  56.13444 116.23419  51.50080 115.68002  51.51712 116.85700  56.15077 117.41117
      15  53.84212 117.72347         27.32820   6.820000  56.15077 117.41117  51.51712 116.85700  51.53346 118.03606  56.16711 118.59023
      15  53.85847 118.90357         27.35098   6.820000  56.16711 118.59023  51.53346 118.03606  51.54982 119.21720  56.18347 119.77137
      15  53.87483 120.08576         27.37378   6.820000  56.18347 119.77137  51.54982 119.21720  51.56619 120.40042  56.19983 120.95459
      15  53.89120 121.27003         27.39661   6.820000  56.19983 120.95459  51.56619 120.40042  51.58257 121.58574  56.21622 122.13991
      15  53.90759 122.45639         27.41945   6.820000  56.21622 122.13991  51.58257 121.58574  51.59897 122.77315  56.23261 123.32732
      15  53.92399 123.64485         27.44230   6.820000  56.23261 123.32732  51.59897 122.77315  51.61538 123.96266  56.24902 124.51683
      15  53.94041 124.83541         27.46518   6.820000  56.24902 124.51683  51.61538 123.96266  51.63180 125.15427  56.26545 125.70844
      15  53.95684 126.02808         27.48808   6.820000  56.26545 125.70844  51.63180 125.15427  51.64824 126.34799  56.28188 126.90216
      15  53.97329 127.22285         27.51100   6.820000  56.28188 126.90216  51.64824 126.34799  51.66469 127.54381  56.29833 128.09798
      14  64.64589   0.65683         26.69792   8.040000  66.94355   0.49827  62.32275  -0.15443  62.34824   0.81561  66.96903   1.46831
      14  64.67139   1.62773         26.72018   8.040000  66.96903   1.46831  62.34824   0.81561  62.37374   1.78738  66.99454   2.44008
      14  64.69690   2.60037         26.74246   8.040000  66.99454   2.44008  62.37374   1.78738  62.39927   2.76088  67.02006   3.41358
      14  64.72244   3.57473         26.76475   8.040000  67.02006   3.41358  62.39927   2.76088  62.42482   3.73610  67.04561   4.38880
      14  64.74800   4.55082         26.78706   8.040000  67.04561   4.38880  62.42482   3.73610  62.45038   4.71306  67.07118   5.36576
      14  64.77358   5.52864         26.80940   8.040000  67.07118   5.36576  62.45038   4.71306  62.47598   5.69175  67.09677   6.34445
      14  64.79918   6.50820         26.83175   8.040000  67.09677   6.34445  62.47598   5.69175  62.50159   6.67218  67.12238   7.32488
      14  64.82480   7.48950         26.85412   8.040000  67.12238   7.32488  62.50159   6.67218  62.52722   7.65435  67.14802   8.30705
      14  64.85045   8.47254         26.87650   8.040000  67.14802   8.30705  62.52722   7.65435  62.55288   8.63826  67.17367   9.29096
      14  64.87611   9.45732         26.89891   8.040000  67.17367   9.29096  62.55288   8.63826  62.57855   9.62392  67.19935  10.27662
      14  64.90180  10.44386         26.92134   8.040000  67.19935  10.27662  62.57855   9.62392  62.60425  10.61133  67.22505  11.26403
      14  64.92751  11.43214         26.94378   8.040000  67.22505  11.26403  62.60425  10.61133  62.62997  11.60049  67.25076  12.25319
      14  64.95324  12.42218         26.96624   8.040000  67.25076  12.25319  62.62997  11.60049  62.65571  12.59140  67.27650  13.24410
      14  64.97899  13.41397         26.98872   8.040000  67.27650  13.24410  62.65571  12.59140  62.68147  13.58408  67.30227  14.23678
      14  65.00476  14.40753         27.01122   8.040000  67.30227  14.23678  62.68147  13.58408  62.70725  14.57851  67.32805  15.23121
      14  65.03055  15.40285         27.03374   8.040000  67.32805  15.23121  62.70725  14.57851  62.73306  15.57471  67.35385  16.22741
      14  65.05637  16.39993         27.05628   8.040000  67.35385  16.22741  62.73306  15.57471  62.75888  16.57268  67.37968  17.22538
      14  65.08221  17.39878         27.07884   8.040000  67.37968  17.22538  62.75888  16.57268  62.78473  17.57242  67.40553  18.22512
      14  65.10807  18.39941         27.10141   8.040000  67.40553  18.22512  62.78473  17.57242  62.81060  18.57393  67.43140  19.22663
      14  65.13395  19.40181         27.12400   8.040000  67.43140  19.22663  62.81060  18.57393  62.83649  19.57722  67.45729  20.22992
      14  65.15985  20.40599         27.14662   8.040000  67.45729  20.22992  62.83649  19.57722  62.86241  20.58229  67.48320  21.23499
      14  65.18577  21.41195         27.16925   8.040000  67.48320  21.23499  62.86241  20.58229  62.88834  21.58914  67.50914  22.24185
      14  65.21172  22.41970         27.19190   8.040000  67.50914  22.24185  62.88834  21.58914  62.91430  22.59778  67.53509  23.25048
      14  65.23768  23.42923         27.21457   8.040000  67.53509  23.25048  62.91430  22.59778  62.94027  23.60821  67.56107  24.26091
      14  65.26367  24.44055         27.23726   8.040000  67.56107  24.26091  62.94027  23.60821  62.96627  24.62043  67.58707  25.27313
      14  65.28968  25.45367         27.25996   8.040000  67.58707  25.27313  62.96627  24.62043  62.99229  25.63444  67.61309  26.28714
      14  65.31571  26.46858         27.28269   8.040000  67.61309  26.28714  62.99229  25.63444  63.01833  26.65026  67.63913  27.30296
      14  65.34177  27.48529         27.30544   8.040000  67.63913  27.30296  63.01833  26.65026  63.04440  27.66787  67.66520  28.32057
      14  65.36784  28.50381         27.32820   8.040000  67.66520  28.32057  63.04440  27.66787  63.07048  28.68729  67.69128  29.33999
      14  65.39394  29.52413         27.35098   8.040000  67.69128  29.33999  63.07048  28.68729  63.09659  29.70851  67.71739  30.36121
      14  65.42006  30.54626         27.37378   8.040000  67.71739  30.36121  63.09659  29.70851  63.12272  30.73155  67.74352  31.38425
      14  65.44620  31.57020         27.39661   8.040000  67.74352  31.38425  63.12272  30.73155  63.14887  31.75640  67.76967  32.40910
      14  65.47236  32.59596         27.41945   8.040000  67.76967  32.40910  63.14887  31.75640  63.17505  32.78307  67.79584  33.43577
      14  65.49854  33.62354         27.44230   8.040000  67.79584  33.43577  63.17505  32.78307  63.20124  33.81155  67.82204  34.46425
      14  65.52475  34.65294         27.46518   8.040000  67.82204  34.46425  63.20124  33.81155  63.22746  34.84186  67.84825  35.49456
      14  65.55097  35.68416         27.48808   8.040000  67.84825  35.49456  63.22746  34.84186  63.25370  35.87400  67.87449  36.52670
      14  65.57722  36.71721         27.51100   8.040000  67.87449  36.52670  63.25370  35.87400  63.27996  36.90796  67.90075  37.56066
      14  65.60350  37.75209         27.53393   8.040000  67.90075  37.56066  63.27996  36.90796  63.30624  37.94376  67.92703  38.59646
      14  65.62979  38.78881         27.55689   8.040000  67.92703  38.59646  63.30624  37.94376  63.33254  38.98139  67.95334  39.63409
      14  65.65610  39.82736         27.57986   8.040000  67.95334  39.63409  63.33254  38.98139  63.35887  40.02087  67.97967  40.67357
      14  65.68244  40.86775         27.60285   8.040000  67.97967  40.67357  63.35887  40.02087  63.38522  41.06218  68.00601  41.71488
      14  65.70880  41.90999         27.62586   8.040000  68.00601  41.71488  63.38522  41.06218  63.41159  42.10534  68.03238  42.75804
      14  65.73518  42.95407         27.64890   8.040000  68.03238  42.75804  63.41159  42.10534  63.43798  43.15035  68.05878  43.80305
      14  65.76158  44.00000         27.67195   8.040000  68.05878  43.80305  63.43798  43.15035  63.46439  44.19721  68.08519  44.84991
      14  65.78801  45.04779         27.69502   8.040000  68.08519  44.84991  63.46439  44.19721  63.49083  45.24592  68.11163  45.89862
      14  65.81446  46.09743         27.71810   8.040000  68.11163  45.89862  63.49083  45.24592  63.51729  46.29649  68.13808  46.94919
      14  65.84093  47.14893         27.74121   8.040000  68.13808  46.94919  63.51729  46.29649  63.54377  47.34892  68.16456  48.00162
      14  65.86742  48.20230         27.76434   8.040000  68.16456  48.00162  63.54377  47.34892  63.57027  48.40322  68.19107  49.05592
      14  65.89393  49.25753         27.78749   8.040000  68.19107  49.05592  63.57027  48.40322  63.59679  49.45938  68.21759  50.11208
      14  65.92046  50.31463         27.81065   8.040000  68.21759  50.11208  63.59679  49.45938  63.62334  50.51742  68.24414  51.17012
      14  65.94702  51.37360         27.83384   8.040000  68.24414  51.17012  63.62334  50.51742  63.64991  51.57733  68.27070  52.23003
      14  65.97360  52.43444         27.85704   8.040000  68.27070  52.23003  63.64991  51.57733  63.67650  52.63911  68.29730  53.29181
      14  66.00020  53.49717         27.88027   8.040000  68.29730  53.29181  63.67650  52.63911  63.70311  53.70278  68.32391  54.35548
      14  66.02683  54.56178         27.90351   8.040000  68.32391  54.35548  63.70311  53.70278  63.72975  54.76832  68.35054  55.42103
      14  66.05347  55.62827         27.92677   8.040000  68.35054  55.42103  63.72975  54.76832  63.75640  55.83576  68.37720  56.48846
      14  66.08014  56.69665         27.95005   8.040000  68.37720  56.48846  63.75640  55.83576  63.78308  56.90509  68.40388  57.55779
      14  66.10683  57.76692         27.97335   8.040000  68.40388  57.55779  63.78308  56.90509  63.80979  57.97630  68.43058  58.62901
      14  66.13355  58.83909         27.99668   8.040000  68.43058  58.62901  63.80979  57.97630  63.83651  59.04942  68.45731  59.70212
      14  66.16028  59.91315         28.02002   8.040000  68.45731  59.70212  63.83651  59.04942  63.86326  60.12443  68.48405  60.77714
      14  66.18704  60.98912         28.04338   8.040000  68.48405  60.77714  63.86326  60.12443  63.89002  61.20135  68.51082  61.85405
      14  66.21382  62.06699         28.06675   8.040000  68.51082  61.85405  63.89002  61.20135  63.91681  62.28018  68.53761  62.93288
      14  66.24062  63.14677         28.09015   8.040000  68.53761  62.93288  63.91681  62.28018  63.94363  63.36091  68.56442  64.01361
      14  66.26744  64.22846         28.11357   8.040000  68.56442  64.01361  63.94363  63.36091  63.97046  64.44356  68.59126  65.09626
      14  66.29429  65.31206         28.13701   8.040000  68.59126  65.09626  63.97046  64.44356  63.99732  65.52812  68.61812  66.18082
      14  66.32116  66.39758         28.16047   8.040000  68.61812  66.18082  63.99732  65.52812  64.02420  66.61460  68.64500  67.26730
      14  66.34805  67.48503         28.18394   8.040000  68.64500  67.26730  64.02420  66.61460  64.05110  67.70300  68.67190  68.35570
      14  66.37497  68.57439         28.20744   8.040000  68.67190  68.35570  64.05110  67.70300  64.07803  68.79333  68.69883  69.44603
      14  66.40190  69.66569         28.23096   8.040000  68.69883  69.44603  64.07803  68.79333  64.10498  69.88559  68.72577  70.53829
      14  66.42886  70.75891         28.25449   8.040000  68.72577  70.53829  64.10498  69.88559  64.13195  70.97979  68.75274  71.63249
      14  66.45584  71.85407         28.27805   8.040000  68.75274  71.63249  64.13195  70.97979  64.15894  72.07591  68.77974  72.72861
      14  66.48285  72.95117         28.30162   8.040000  68.77974  72.72861  64.15894  72.07591  64.18595  73.17398  68.80675  73.82668
      14  66.50987  74.05021         28.32522   8.040000  68.80675  73.82668  64.18595  73.17398  64.21299  74.27399  68.83379  74.92669
      14  66.53692  75.15119         28.34883   8.040000  68.83379  74.92669  64.21299  74.27399  64.24005  75.37594  68.86085  76.02865
      14  66.56399  76.25412         28.37246   8.040000  68.86085  76.02865  64.24005  75.37594  64.26714  76.47985  68.88793  77.13255
      14  66.59109  77.35900         28.39612   8.040000  68.88793  77.13255  64.26714  76.47985  64.29424  77.58571  68.91504  78.23841
      14  66.61820  78.46583         28.41979   8.040000  68.91504  78.23841  64.29424  77.58571  64.32137  78.69352  68.94216  79.34622
      14  66.64534  79.57463         28.44348   8.040000  68.94216  79.34622  64.32137  78.69352  64.34852  79.80329  68.96931  80.45599
      14  66.67250  80.68538         28.46720   8.040000  68.96931  80.45599  64.34852  79.80329  64.37569  80.91503  68.99649  81.56773
      14  66.69969  81.79810         28.49093   8.040000  68.99649  81.56773  64.37569  80.91503  64.40289  82.02873  69.02368  82.68143
      14  66.72689  82.91278         28.51468   8.040000  69.02368  82.68143  64.40289  82.02873  64.43011  83.14440  69.05090  83.79710
      14  66.75412  84.02944         28.53845   8.040000  69.05090  83.79710  64.43011  83.14440  64.45735  84.26204  69.07814  84.91474
      14  66.78138  85.14807         28.56225   8.040000  69.07814  84.91474  64.45735  84.26204  64.48461  85.38166  69.10541  86.03436
      14  66.80865  86.26867         28.58606   8.040000  69.10541  86.03436  64.48461  85.38166  64.51190  86.50325  69.13269  87.15595
      14  66.83595  87.39126         28.60989   8.040000  69.13269  87.15595  64.51190  86.50325  64.53921  87.62684  69.16000  88.27954
      14  66.86327  88.51584         28.63374   8.040000  69.16000  88.27954  64.53921  87.62684  64.56654  88.75240  69.18734  89.40510
      14  66.89061  89.64240         28.65761   8.040000  69.18734  89.40510  64.56654  88.75240  64.59389  89.87996  69.21469  90.53266
      14  66.91798  90.77095         28.68150   8.040000  69.21469  90.53266  64.59389  89.87996  64.62127  91.00951  69.24207  91.66221
      14  66.94537  91.90150         28.70541   8.040000  69.24207  91.66221  64.62127  91.00951  64.64867  92.14106  69.26947  92.79376
      14  66.97278  93.03405         28.72935   8.040000  69.26947  92.79376  64.64867  92.14106  64.67609  93.27460  69.29689  93.92730
      14  67.00022  94.16859         28.75330   8.040000  69.29689  93.92730  64.67609  93.27460  64.70354  94.41015  69.32434  95.06285
      14  67.02767  95.30515         28.77727   8.040000  69.32434  95.06285  64.70354  94.41015  64.73101  95.54771  69.35181  96.20041
      14  67.05515  96.44371         28.80126   8.040000  69.35181  96.20041  64.73101  95.54771  64.75850  96.68727  69.37930  97.33998
      14  67.08266  97.58428         28.82527   8.040000  69.37930  97.33998  64.75850  96.68727  64.78602  97.82886  69.40681  98.48156
      14  67.11018  98.72687         28.84930   8.040000  69.40681  98.48156  64.78602  97.82886  64.81355  98.97245  69.43435  99.62515
      14  67.13773  99.87148         28.87335   8.040000  69.43435  99.62515  64.81355  98.97245  64.84112 100.11807  69.46191 100.77077
      14  67.16531 101.01811         28.89742   8.040000  69.46191 100.77077  64.84112 100.11807  64.86870 101.26571  69.48950 101.91841
      14  67.19290 102.16676         28.92151   8.040000  69.48950 101.91841  64.86870 101.26571  64.89631 102.41538  69.51710 103.06808
      14  67.22052 103.31745         28.94563   8.040000  69.51710 103.06808  64.89631 102.41538  64.92394 103.56708  69.54473 104.21978
      14  67.24816 104.47017         28.96976   8.040000  69.54473 104.21978  64.92394 103.56708  64.95159 104.72082  69.57239 105.37352
      14  67.27582 105.62492         28.99391   8.040000  69.57239 105.37352  64.95159 104.72082  64.97926 105.87659  69.60006 106.52929
      14  67.30351 106.78171         29.01808   8.040000  69.60006 106.52929  64.97926 105.87659  65.00696 107.03441  69.62776 107.68711
      14  67.33122 107.94055         29.04227   8.040000  69.62776 107.68711  65.00696 107.03441  65.03469 108.19427  69.65548 108.84697
      14  67.35896 109.10144         29.06648   8.040000  69.65548 108.84697  65.03469 108.19427  65.06243 109.35617  69.68323 110.00887
      14  67.38671 110.26437         29.09072   8.040000  69.68323 110.00887  65.06243 109.35617  65.09020 110.52013  69.71100 111.17283
      14  67.41449 111.42936         29.11497   8.040000  69.71100 111.17283  65.09020 110.52013  65.11799 111.68615  69.73879 112.33885
      14  67.44230 112.59640         29.13924   8.040000  69.73879 112.33885  65.11799 111.68615  65.14580 112.85422  69.76660 113.50693
      14  67.47012 113.76551         29.16353   8.040000  69.76660 113.50693  65.14580 112.85422  65.17364 114.02436  69.79444 114.67706
      14  67.49797 114.93668         29.18785   8.040000  69.79444 114.67706  65.17364 114.02436  65.20150 115.19656  69.82230 115.84927
      14  67.52584 116.10991         29.21218   8.040000  69.82230 115.84927  65.20150 115.19656  65.22939 116.37084  69.85018 117.02354
      14  67.55374 117.28522         29.23653   8.040000  69.85018 117.02354  65.22939 116.37084  65.25730 117.54718  69.87809 118.19988
      14  67.58166 118.46261         29.26091   8.040000  69.87809 118.19988  65.25730 117.54718  65.28523 118.72561  69.90602 119.37831
      14  67.60960 119.64207         29.28530   8.040000  69.90602 119.37831  65.28523 118.72561  65.31318 119.90611  69.93398 120.55881
      14  67.63757 120.82362         29.30972   8.040000  69.93398 120.55881  65.31318 119.90611  65.34116 121.08870  69.96195 121.74140
      14  67.66556 122.00725         29.33415   8.040000  69.96195 121.74140  65.34116 121.08870  65.36916 122.27337  69.98995 122.92607
      14  67.69357 123.19297         29.35861   8.040000  69.98995 122.92607  65.36916 122.27337  65.39718 123.46014  70.01798 124.11284
      14  67.72160 124.38078         29.38308   8.040000  70.01798 124.11284  65.39718 123.46014  65.42523 124.64900  70.04603 125.30170
      14  67.74966 125.57069         29.40758   8.040000  70.04603 125.30170  65.42523 124.64900  65.45330 125.83995  70.07410 126.49265
      14  67.77775 126.76270         29.43210   8.040000  70.07410 126.49265  65.45330 125.83995  65.48139 127.03301  70.10219 127.68571
      14  67.80585 127.95681         29.45663   8.040000  70.10219 127.68571  65.48139 127.03301  65.50951 128.22818  70.13031 128.88088
      13  78.96142   0.77617         28.72935   9.250000  81.24524   0.66025  76.63926  -0.08988  76.67760   0.89233  81.28359   1.64246
      13  78.99978   1.75926         28.75330   9.250000  81.28359   1.64246  76.67760   0.89233  76.71598   1.87630  81.32196   2.62643
      13  79.03817   2.74411         28.77727   9.250000  81.32196   2.62643  76.71598   1.87630  76.75438   2.86203  81.36036   3.61216
      13  79.07659   3.73072         28.80126   9.250000  81.36036   3.61216  76.75438   2.86203  76.79282   3.84952  81.39880   4.59965
      13  79.11505   4.71910         28.82527   9.250000  81.39880   4.59965  76.79282   3.84952  76.83129   4.83878  81.43727   5.58891
      13  79.15353   5.70924         28.84930   9.250000  81.43727   5.58891  76.83129   4.83878  76.86979   5.82980  81.47577   6.57993
      13  79.19205   6.70114         28.87335   9.250000  81.47577   6.57993  76.86979   5.82980  76.90832   6.82259  81.51431   7.57272
      13  79.23060   7.69482         28.89742   9.250000  81.51431   7.57272  76.90832   6.82259  76.94689   7.81716  81.55287   8.56729
      13  79.26918   8.69028         28.92151   9.250000  81.55287   8.56729  76.94689   7.81716  76.98549   8.81351  81.59147   9.56364
      13  79.30779   9.68751         28.94563   9.250000  81.59147   9.56364  76.98549   8.81351  77.02412   9.81163  81.63010  10.56176
      13  79.34644  10.68653         28.96976   9.250000  81.63010  10.56176  77.02412   9.81163  77.06278  10.81154  81.66876  11.56167
      13  79.38512  11.68733         28.99391   9.250000  81.66876  11.56167  77.06278  10.81154  77.10147  11.81323  81.70746  12.56336
      13  79.42383  12.68992         29.01808   9.250000  81.70746  12.56336  77.10147  11.81323  77.14020  12.81672  81.74618  13.56685
      13  79.46257  13.69430         29.04227   9.250000  81.74618  13.56685  77.14020  12.81672  77.17896  13.82199  81.78494  14.57212
      13  79.50135  14.70047         29.06648   9.250000  81.78494  14.57212  77.17896  13.82199  77.21775  14.82906  81.82373  15.57919
      13  79.54015  15.70844         29.09072   9.250000  81.82373  15.57919  77.21775  14.82906  77.25657  15.83793  81.86256  16.58806
      13  79.57899  16.71821         29.11497   9.250000  81.86256  16.58806  77.25657  15.83793  77.29543  16.84860  81.90141  17.59873
      13  79.61787  17.72979         29.13924   9.250000  81.90141  17.59873  77.29543  16.84860  77.33432  17.86108  81.94030  18.61121
      13  79.65677  18.74317         29.16353   9.250000  81.94030  18.61121  77.33432  17.86108  77.37324  18.87536  81.97922  19.62549
      13  79.69571  19.75835         29.18785   9.250000  81.97922  19.62549  77.37324  18.87536  77.41219  19.89146  82.01818  20.64159
      13  79.73468  20.77536         29.21218   9.250000  82.01818  20.64159  77.41219  19.89146  77.45118  20.90937  82.05716  21.65950
      13  79.77368  21.79417         29.23653   9.250000  82.05716  21.65950  77.45118  20.90937  77.49020  21.92909  82.09618  22.67922
      13  79.81271  22.81481         29.26091   9.250000  82.09618  22.67922  77.49020  21.92909  77.52925  22.95064  82.13523  23.70077
      13  79.85178  23.83727         29.28530   9.250000  82.13523  23.70077  77.52925  22.95064  77.56833  23.97401  82.17431  24.72414
      13  79.89088  24.86155         29.30972   9.250000  82.17431  24.72414  77.56833  23.97401  77.60745  24.99920  82.21343  25.74934
      13  79.93001  25.88766         29.33415   9.250000  82.21343  25.74934  77.60745  24.99920  77.64660  26.02623  82.25258  26.77636
      13  79.96918  26.91560         29.35861   9.250000  82.25258  26.77636  77.64660  26.02623  77.68578  27.05509  82.29176  27.80522
      13  80.00837  27.94538         29.38308   9.250000  82.29176  27.80522  77.68578  27.05509  77.72499  28.08578  82.33097  28.83592
      13  80.04760  28.97699         29.40758   9.250000  82.33097  28.83592  77.72499  28.08578  77.76424  29.11832  82.37022  29.86845
      13  80.08687  30.01045         29.43210   9.250000  82.37022  29.86845  77.76424  29.11832  77.80352  30.15269  82.40950  30.90283
      13  80.12616  31.04575         29.45663   9.250000  82.40950  30.90283  77.80352  30.15269  77.84283  31.18892  82.44881  31.93905
      13  80.16549  32.08289         29.48119   9.250000  82.44881  31.93905  77.84283  31.18892  77.88217  32.22699  82.48816  32.97712
      13  80.20485  33.12189         29.50577   9.250000  82.48816  32.97712  77.88217  32.22699  77.92155  33.26691  82.52753  34.01704
      13  80.24425  34.16274         29.53037   9.250000  82.52753  34.01704  77.92155  33.26691  77.96096  34.30869  82.56694  35.05882
      13  80.28367  35.20545         29.55499   9.250000  82.56694  35.05882  77.96096  34.30869  78.00040  35.35232  82.60639  36.10245
      13  80.32313  36.25001         29.57962   9.250000  82.60639  36.10245  78.00040  35.35232  78.03988  36.39782  82.64586  37.14795
      13  80.36263  37.29644         29.60428   9.250000  82.64586  37.14795  78.03988  36.39782  78.07939  37.44518  82.68537  38.19531
      13  80.40215  38.34474         29.62897   9.250000  82.68537  38.19531  78.07939  37.44518  78.11893  38.49441  82.72491  39.24454
      13  80.44171  39.39490         29.65367   9.250000  82.72491  39.24454  78.11893  38.49441  78.15851  39.54551  82.76449  40.29565
      13  80.48130  40.44694         29.67839   9.250000  82.76449  40.29565  78.15851  39.54551  78.19811  40.59849  82.80410  41.34862
      13  80.52093  41.50086         29.70313   9.250000  82.80410  41.34862  78.19811  40.59849  78.23775  41.65334  82.84374  42.40347
      13  80.56058  42.55665         29.72789   9.250000  82.84374  42.40347  78.23775  41.65334  78.27743  42.71008  82.88341  43.46021
      13  80.60027  43.61433         29.75268   9.250000  82.88341  43.46021  78.27743  42.71008  78.31714  43.76869  82.92312  44.51883
      13  80.64000  44.67389         29.77748   9.250000  82.92312  44.51883  78.31714  43.76869  78.35688  44.82920  82.96286  45.57933
      13  80.67975  45.73534         29.80231   9.250000  82.96286  45.57933  78.35688  44.82920  78.39665  45.89160  83.00263  46.64173
      13  80.71954  46.79868         29.82715   9.250000  83.00263  46.64173  78.39665  45.89160  78.43646  46.95589  83.04244  47.70602
      13  80.75937  47.86392         29.85202   9.250000  83.04244  47.70602  78.43646  46.95589  78.47630  48.02207  83.08228  48.77220
      13  80.79922  48.93106         29.87691   9.250000  83.08228  48.77220  78.47630  48.02207  78.51617  49.09016  83.12215  49.84029
      13  80.83911  50.00009         29.90181   9.250000  83.12215  49.84029  78.51617  49.09016  78.55607  50.16015  83.16206  50.91028
      13  80.87904  51.07104         29.92674   9.250000  83.16206  50.91028  78.55607  50.16015  78.59601  51.23205  83.20200  51.98218
      13  80.91899  52.14389         29.95169   9.250000  83.20200  51.98218  78.59601  51.23205  78.63599  52.30586  83.24197  53.05599
      13  80.95898  53.21865         29.97666   9.250000  83.24197  53.05599  78.63599  52.30586  78.67599  53.38158  83.28198  54.13171
      13  80.99900  54.29533         30.00165   9.250000  83.28198  54.13171  78.67599  53.38158  78.71603  54.45921  83.32201  55.20935
      13  81.03906  55.37393         30.02666   9.250000  83.32201  55.20935  78.71603  54.45921  78.75610  55.53877  83.36209  56.28890
      13  81.07915  56.45445         30.05170   9.250000  83.36209  56.28890  78.75610  55.53877  78.79621  56.62025  83.40219  57.37039
      13  81.11927  57.53690         30.07675   9.250000  83.40219  57.37039  78.79621  56.62025  78.83635  57.70366  83.44233  58.45379
      13  81.15943  58.62127         30.10182   9.250000  83.44233  58.45379  78.83635  57.70366  78.87652  58.78900  83.48251  59.53913
      13  81.19962  59.70757         30.12692   9.250000  83.48251  59.53913  78.87652  58.78900  78.91673  59.87627  83.52271  60.62640
      13  81.23984  60.79581         30.15204   9.250000  83.52271  60.62640  78.91673  59.87627  78.95697  60.96548  83.56295  61.71561
      13  81.28010  61.88599         30.17717   9.250000  83.56295  61.71561  78.95697  60.96548  78.99724  62.05663  83.60323  62.80676
      13  81.32039  62.97811         30.20233   9.250000  83.60323  62.80676  78.99724  62.05663  79.03755  63.14972  83.64353  63.89985
      13  81.36071  64.07217         30.22751   9.250000  83.64353  63.89985  79.03755  63.14972  79.07789  64.24475  83.68387  64.99489
      13  81.40107  65.16818         30.25271   9.250000  83.68387  64.99489  79.07789  64.24475  79.11827  65.34174  83.72425  66.09187
      13  81.44146  66.26615         30.27793   9.250000  83.72425  66.09187  79.11827  65.34174  79.15867  66.44068  83.76466  67.19082
      13  81.48189  67.36607         30.30317   9.250000  83.76466  67.19082  79.15867  66.44068  79.19912  67.54158  83.80510  68.29171
      13  81.52234  68.46795         30.32844   9.250000  83.80510  68.29171  79.19912  67.54158  79.23959  68.64444  83.84557  69.39457
      13  81.56284  69.57178         30.35372   9.250000  83.84557  69.39457  79.23959  68.64444  79.28010  69.74926  83.88608  70.49939
      13  81.60336  70.67759         30.37903   9.250000  83.88608  70.49939  79.28010  69.74926  79.32064  70.85605  83.92663  71.60618
      13  81.64392  71.78536         30.40435   9.250000  83.92663  71.60618  79.32064  70.85605  79.36122  71.96481  83.96720  72.71494
      13  81.68452  72.89511         30.42970   9.250000  83.96720  72.71494  79.36122  71.96481  79.40183  73.07554  84.00781  73.82567
      13  81.72514  74.00683         30.45507   9.250000  84.00781  73.82567  79.40183  73.07554  79.44247  74.18825  84.04846  74.93838
      13  81.76581  75.12053         30.48046   9.250000  84.04846  74.93838  79.44247  74.18825  79.48315  75.30294  84.08914  76.05307
      13  81.80650  76.23621         30.50587   9.250000  84.08914  76.05307  79.48315  75.30294  79.52387  76.41961  84.12985  77.16974
      13  81.84723  77.35387         30.53130   9.250000  84.12985  77.16974  79.52387  76.41961  79.56461  77.53827  84.17059  78.28840
      13  81.88799  78.47353         30.55676   9.250000  84.17059  78.28840  79.56461  77.53827  79.60539  78.65892  84.21137  79.40905
      13  81.92879  79.59517         30.58223   9.250000  84.21137  79.40905  79.60539  78.65892  79.64621  79.78156  84.25219  80.53170
      13  81.96962  80.71882         30.60773   9.250000  84.25219  80.53170  79.64621  79.78156  79.68705  80.90621  84.29304  81.65634
      13  82.01049  81.84446         30.63324   9.250000  84.29304  81.65634  79.68705  80.90621  79.72794  82.03285  84.33392  82.78298
      13  82.05139  82.97211         30.65878   9.250000  84.33392  82.78298  79.72794  82.03285  79.76885  83.16150  84.37484  83.91163
      13  82.09232  84.10176         30.68434   9.250000  84.37484  83.91163  79.76885  83.16150  79.80980  84.29215  84.41579  85.04228
      13  82.13329  85.23342         30.70992   9.250000  84.41579  85.04228  79.80980  84.29215  79.85079  85.42482  84.45677  86.17495
      13  82.17429  86.36709         30.73552   9.250000  84.45677  86.17495  79.85079  85.42482  79.89181  86.55950  84.49779  87.30963
      13  82.21532  87.50278         30.76115   9.250000  84.49779  87.30963  79.89181  86.55950  79.93286  87.69620  84.53884  88.44633
      13  82.25639  88.64049         30.78679   9.250000  84.53884  88.44633  79.93286  87.69620  79.97395  88.83492  84.57993  89.58505
      13  82.29750  89.78023         30.81246   9.250000  84.57993  89.58505  79.97395  88.83492  80.01507  89.97567  84.62105  90.72580
      13  82.33864  90.92199         30.83815   9.250000  84.62105  90.72580  80.01507  89.97567  80.05622  91.11844  84.66221  91.86857
      13  82.37981  92.06578         30.86386   9.250000  84.66221  91.86857  80.05622  91.11844  80.09741  92.26325  84.70340  93.01338
      13  82.42102  93.21160         30.88959   9.250000  84.70340  93.01338  80.09741  92.26325  80.13864  93.41009  84.74462  94.16022
      13  82.46226  94.35946         30.91534   9.250000  84.74462  94.16022  80.13864  93.41009  80.17990  94.55897  84.78588  95.30911
      13  82.50353  95.50937         30.94111   9.250000  84.78588  95.30911  80.17990  94.55897  80.22119  95.70990  84.82717  96.46003
      13  82.54484  96.66131         30.96691   9.250000  84.82717  96.46003  80.22119  95.70990  80.26252  96.86287  84.86850  97.61300
      13  82.58619  97.81531         30.99272   9.250000  84.86850  97.61300  80.26252  96.86287  80.30388  98.01789  84.90986  98.76802
      13  82.62757  98.97135         31.01856   9.250000  84.90986  98.76802  80.30388  98.01789  80.34528  99.17496  84.95126  99.92509
      13  82.66898 100.12946         31.04442   9.250000  84.95126  99.92509  80.34528  99.17496  80.38671 100.33409  84.99269 101.08422
      13  82.71043 101.28962         31.07030   9.250000  84.99269 101.08422  80.38671 100.33409  80.42817 101.49528  85.03416 102.24541
      13  82.75191 102.45184         31.09620   9.250000  85.03416 102.24541  80.42817 101.49528  80.46967 102.65854  85.07566 103.40867
      13  82.79343 103.61612         31.12213   9.250000  85.07566 103.40867  80.46967 102.65854  80.51121 103.82386  85.11719 104.57399
      13  82.83498 104.78248         31.14808   9.250000  85.11719 104.57399  80.51121 103.82386  80.55278 104.99125  85.15876 105.74138
      13  82.87657 105.95091         31.17404   9.250000  85.15876 105.74138  80.55278 104.99125  80.59438 106.16071  85.20036 106.91085
      13  82.91819 107.12142         31.20003   9.250000  85.20036 106.91085  80.59438 106.16071  80.63602 107.33226  85.24200 108.08239
      13  82.95985 108.29400         31.22604   9.250000  85.24200 108.08239  80.63602 107.33226  80.67769 108.50589  85.28368 109.25602
      13  83.00154 109.46867         31.25208   9.250000  85.28368 109.25602  80.67769 108.50589  80.71940 109.68160  85.32538 110.43173
      13  83.04326 110.64542         31.27813   9.250000  85.32538 110.43173  80.71940 109.68160  80.76114 110.85940  85.36713 111.60953
      13  83.08502 111.82427         31.30421   9.250000  85.36713 111.60953  80.76114 110.85940  80.80292 112.03929  85.40890 112.78942
      13  83.12682 113.00521         31.33030   9.250000  85.40890 112.78942  80.80292 112.03929  80.84473 113.22128  85.45072 113.97141
      13  83.16865 114.18825         31.35642   9.250000  85.45072 113.97141  80.84473 113.22128  80.88658 114.40536  85.49256 115.15550
      13  83.21051 115.37339         31.38256   9.250000  85.49256 115.15550  80.88658 114.40536  80.92846 115.59156  85.53445 116.34169
      13  83.25241 116.56063         31.40873   9.250000  85.53445 116.34169  80.92846 115.59156  80.97038 116.77985  85.57636 117.52999
      13  83.29435 117.74998         31.43491   9.250000  85.57636 117.52999  80.97038 116.77985  81.01233 117.97026  85.61832 118.72039
      13  83.33632 118.94145         31.46112   9.250000  85.61832 118.72039  81.01233 117.97026  81.05432 119.16278  85.66030 119.91291
      13  83.37832 120.13503         31.48735   9.250000  85.66030 119.91291  81.05432 119.16278  81.09634 120.35742  85.70232 121.10755
      13  83.42036 121.33073         31.51360   9.250000  85.70232 121.10755  81.09634 120.35742  81.13840 121.55418  85.74438 122.30432
      13  83.46244 122.52855         31.53987   9.250000  85.74438 122.30432  81.13840 121.55418  81.18049 122.75307  85.78647 123.50320
      13  83.50455 123.72850         31.56616   9.250000  85.78647 123.50320  81.18049 122.75307  81.22262 123.95408  85.82860 124.70422
      13  83.54669 124.93058         31.59248   9.250000  85.82860 124.70422  81.22262 123.95408  81.26478 125.15723  85.87076 125.90736
      13  83.58887 126.13480         31.61882   9.250000  85.87076 125.90736  81.26478 125.15723  81.30698 126.36251  85.91296 127.11264
      13  83.63109 127.34115         31.64518   9.250000  85.91296 127.11264  81.30698 126.36251  81.34921 127.56993  85.95519 128.32007
      12  95.47550   0.53709         31.01856  10.490000  97.74343   0.47535  93.15476  -0.37428  93.20757   0.59905  97.79624   1.44869
      12  95.52833   1.51129         31.04442  10.490000  97.79624   1.44869  93.20757   0.59905  93.26042   1.57413  97.84909   2.42376
      12  95.58120   2.48723         31.07030  10.490000  97.84909   2.42376  93.26042   1.57413  93.31331   2.55093  97.90198   3.40056
      12  95.63411   3.46490         31.09620  10.490000  97.90198   3.40056  93.31331   2.55093  93.36625   3.52948  97.95492   4.37911
      12  95.68707   4.44432         31.12213  10.490000  97.95492   4.37911  93.36625   3.52948  93.41923   4.50976  98.00790   5.35939
      12  95.74008   5.42547         31.14808  10.490000  98.00790   5.35939  93.41923   4.50976  93.47225   5.49179  98.06092   6.34142
      12  95.79312   6.40838         31.17404  10.490000  98.06092   6.34142  93.47225   5.49179  93.52532   6.47556  98.11399   7.32520
      12  95.84622   7.39303         31.20003  10.490000  98.11399   7.32520  93.52532   6.47556  93.57844   7.46109  98.16711   8.31072
      12  95.89935   8.37943         31.22604  10.490000  98.16711   8.31072  93.57844   7.46109  93.63159   8.44837  98.22027   9.29800
      12  95.95253   9.36758         31.25208  10.490000  98.22027   9.29800  93.63159   8.44837  93.68480   9.43740  98.27347  10.28703
      12  96.00576  10.35749         31.27813  10.490000  98.27347  10.28703  93.68480   9.43740  93.73804  10.42819  98.32671  11.27782
      12  96.05902  11.34917         31.30421  10.490000  98.32671  11.27782  93.73804  10.42819  93.79133  11.42075  98.38001  12.27038
      12  96.11234  12.34260         31.33030  10.490000  98.38001  12.27038  93.79133  11.42075  93.84467  12.41507  98.43334  13.26470
      12  96.16570  13.33781         31.35642  10.490000  98.43334  13.26470  93.84467  12.41507  93.89805  13.41115  98.48672  14.26078
      12  96.21910  14.33478         31.38256  10.490000  98.48672  14.26078  93.89805  13.41115  93.95147  14.40901  98.54015  15.25864
      12  96.27254  15.33352         31.40873  10.490000  98.54015  15.25864  93.95147  14.40901  94.00494  15.40864  98.59361  16.25827
      12  96.32604  16.33404         31.43491  10.490000  98.59361  16.25827  94.00494  15.40864  94.05846  16.41005  98.64713  17.25968
      12  96.37957  17.33634         31.46112  10.490000  98.64713  17.25968  94.05846  16.41005  94.11201  17.41324  98.70069  18.26287
      12  96.43315  18.34042         31.48735  10.490000  98.70069  18.26287  94.11201  17.41324  94.16562  18.41821  98.75429  19.26784
      12  96.48678  19.34629         31.51360  10.490000  98.75429  19.26784  94.16562  18.41821  94.21926  19.42497  98.80794  20.27460
      12  96.54045  20.35394         31.53987  10.490000  98.80794  20.27460  94.21926  19.42497  94.27296  20.43352  98.86163  21.28315
      12  96.59416  21.36339         31.56616  10.490000  98.86163  21.28315  94.27296  20.43352  94.32669  21.44386  98.91537  22.29349
      12  96.64792  22.37462         31.59248  10.490000  98.91537  22.29349  94.32669  21.44386  94.38048  22.45600  98.96915  23.30563
      12  96.70172  23.38766         31.61882  10.490000  98.96915  23.30563  94.38048  22.45600  94.43430  23.46993  99.02297  24.31956
      12  96.75557  24.40249         31.64518  10.490000  99.02297  24.31956  94.43430  23.46993  94.48817  24.48567  99.07685  25.33530
      12  96.80947  25.41913         31.67156  10.490000  99.07685  25.33530  94.48817  24.48567  94.54209  25.50321  99.13076  26.35284
      12  96.86341  26.43758         31.69796  10.490000  99.13076  26.35284  94.54209  25.50321  94.59605  26.52256  99.18472  27.37219
      12  96.91739  27.45783         31.72439  10.490000  99.18472  27.37219  94.59605  26.52256  94.65006  27.54371  99.23873  28.39335
      12  96.97142  28.47990         31.75084  10.490000  99.23873  28.39335  94.65006  27.54371  94.70411  28.56669  99.29278  29.41632
      12  97.02549  29.50378         31.77731  10.490000  99.29278  29.41632  94.70411  28.56669  94.75821  29.59148  99.34688  30.44111
      12  97.07961  30.52948         31.80380  10.490000  99.34688  30.44111  94.75821  29.59148  94.81235  30.61809  99.40102  31.46772
      12  97.13378  31.55700         31.83031  10.490000  99.40102  31.46772  94.81235  30.61809  94.86653  31.64653  99.45521  32.49616
      12  97.18799  32.58635         31.85685  10.490000  99.45521  32.49616  94.86653  31.64653  94.92077  32.67679  99.50944  33.52642
      12  97.24224  33.61753         31.88341  10.490000  99.50944  33.52642  94.92077  32.67679  94.97504  33.70888  99.56371  34.55851
      12  97.29654  34.65053         31.90999  10.490000  99.56371  34.55851  94.97504  33.70888  95.02937  34.74280  99.61804  35.59243
      12  97.35088  35.68537         31.93659  10.490000  99.61804  35.59243  95.02937  34.74280  95.08373  35.77856  99.67240  36.62819
      12  97.40527  36.72205         31.96322  10.490000  99.67240  36.62819  95.08373  35.77856  95.13815  36.81616  99.72682  37.66579
      12  97.45971  37.76057         31.98986  10.490000  99.72682  37.66579  95.13815  36.81616  95.19260  37.85560  99.78128  38.70523
      12  97.51419  38.80094         32.01653  10.490000  99.78128  38.70523  95.19260  37.85560  95.24711  38.89689  99.83578  39.74652
      12  97.56872  39.84315         32.04323  10.490000  99.83578  39.74652  95.24711  38.89689  95.30166  39.94002  99.89033  40.78965
      12  97.62329  40.88721         32.06994  10.490000  99.89033  40.78965  95.30166  39.94002  95.35625  40.98501  99.94492  41.83464
      12  97.67791  41.93312         32.09668  10.490000  99.94492  41.83464  95.35625  40.98501  95.41089  42.03185  99.99956  42.88148
      12  97.73257  42.98090         32.12343  10.490000  99.99956  42.88148  95.41089  42.03185  95.46558  43.08055 100.05425  43.93018
      12  97.78728  44.03053         32.15021  10.490000 100.05425  43.93018  95.46558  43.08055  95.52031  44.13112 100.10898  44.98075
      12  97.84203  45.08202         32.17702  10.490000 100.10898  44.98075  95.52031  44.13112  95.57508  45.18354 100.16376  46.03317
      12  97.89683  46.13538         32.20384  10.490000 100.16376  46.03317  95.57508  45.18354  95.62991  46.23784 100.21858  47.08747
      12  97.95168  47.19061         32.23069  10.490000 100.21858  47.08747  95.62991  46.23784  95.68478  47.29400 100.27345  48.14363
      12  98.00657  48.24771         32.25756  10.490000 100.27345  48.14363  95.68478  47.29400  95.73969  48.35204 100.32836  49.20167
      12  98.06151  49.30669         32.28445  10.490000 100.32836  49.20167  95.73969  48.35204  95.79465  49.41196 100.38332  50.26159
      12  98.11649  50.36755         32.31137  10.490000 100.38332  50.26159  95.79465  49.41196  95.84965  50.47376 100.43833  51.32339
      12  98.17152  51.43029         32.33831  10.490000 100.43833  51.32339  95.84965  50.47376  95.90471  51.53744 100.49338  52.38707
      12  98.22659  52.49491         32.36527  10.490000 100.49338  52.38707  95.90471  51.53744  95.95980  52.60301 100.54847  53.45264
      12  98.28171  53.56143         32.39225  10.490000 100.54847  53.45264  95.95980  52.60301  96.01495  53.67047 100.60362  54.52010
      12  98.33688  54.62983         32.41925  10.490000 100.60362  54.52010  96.01495  53.67047  96.07014  54.73982 100.65881  55.58945
      12  98.39209  55.70013         32.44628  10.490000 100.65881  55.58945  96.07014  54.73982  96.12537  55.81107 100.71404  56.66070
      12  98.44735  56.77233         32.47333  10.490000 100.71404  56.66070  96.12537  55.81107  96.18065  56.88422 100.76932  57.73385
      12  98.50265  57.84643         32.50040  10.490000 100.76932  57.73385  96.18065  56.88422  96.23598  57.95927 100.82465  58.80890
      12  98.55800  58.92244         32.52750  10.490000 100.82465  58.80890  96.23598  57.95927  96.29135  59.03623 100.88002  59.88586
      12  98.61340  60.00035         32.55461  10.490000 100.88002  59.88586  96.29135  59.03623  96.34677  60.11510 100.93544  60.96473
      12  98.66884  61.08018         32.58175  10.490000 100.93544  60.96473  96.34677  60.11510  96.40224  61.19588 100.99091  62.04552
      12  98.72433  62.16192         32.60892  10.490000 100.99091  62.04552  96.40224  61.19588  96.45775  62.27858 101.04642  63.12821
      12  98.77987  63.24558         32.63610  10.490000 101.04642  63.12821  96.45775  62.27858  96.51331  63.36320 101.10198  64.21283
      12  98.83545  64.33116         32.66331  10.490000 101.10198  64.21283  96.51331  63.36320  96.56891  64.44975 101.15759  65.29938
      12  98.89108  65.41867         32.69054  10.490000 101.15759  65.29938  96.56891  64.44975  96.62457  65.53821 101.21324  66.38785
      12  98.94675  66.50810         32.71779  10.490000 101.21324  66.38785  96.62457  65.53821  96.68026  66.62861 101.26893  67.47824
      12  99.00247  67.59947         32.74507  10.490000 101.26893  67.47824  96.68026  66.62861  96.73601  67.72094 101.32468  68.57058
      12  99.05824  68.69277         32.77237  10.490000 101.32468  68.57058  96.73601  67.72094  96.79180  68.81521 101.38047  69.66484
      12  99.11405  69.78800         32.79969  10.490000 101.38047  69.66484  96.79180  68.81521  96.84763  69.91142 101.43631  70.76105
      12  99.16991  70.88518         32.82704  10.490000 101.43631  70.76105  96.84763  69.91142  96.90352  71.00957 101.49219  71.85920
      12  99.22582  71.98431         32.85440  10.490000 101.49219  71.85920  96.90352  71.00957  96.95945  72.10967 101.54812  72.95930
      12  99.28177  73.08538         32.88179  10.490000 101.54812  72.95930  96.95945  72.10967  97.01542  73.21172 101.60410  74.06135
      12  99.33777  74.18840         32.90921  10.490000 101.60410  74.06135  97.01542  73.21172  97.07145  74.31572 101.66012  75.16535
      12  99.39382  75.29338         32.93664  10.490000 101.66012  75.16535  97.07145  74.31572  97.12752  75.42167 101.71619  76.27130
      12  99.44991  76.40032         32.96410  10.490000 101.71619  76.27130  97.12752  75.42167  97.18363  76.52959 101.77231  77.37922
      12  99.50605  77.50921         32.99158  10.490000 101.77231  77.37922  97.18363  76.52959  97.23980  77.63947 101.82847  78.48910
      12  99.56224  78.62007         33.01909  10.490000 101.82847  78.48910  97.23980  77.63947  97.29601  78.75131 101.88468  79.60094
      12  99.61847  79.73291         33.04661  10.490000 101.88468  79.60094  97.29601  78.75131  97.35227  79.86513 101.94094  80.71476
      12  99.67475  80.84771         33.07416  10.490000 101.94094  80.71476  97.35227  79.86513  97.40857  80.98092 101.99724  81.83055
      12  99.73108  81.96448         33.10174  10.490000 101.99724  81.83055  97.40857  80.98092  97.46492  82.09868 102.05359  82.94831
      12  99.78746  83.08324         33.12933  10.490000 102.05359  82.94831  97.46492  82.09868  97.52132  83.21843 102.10999  84.06806
      12  99.84388  84.20398         33.15695  10.490000 102.10999  84.06806  97.52132  83.21843  97.57776  84.34016 102.16643  85.18979
      12  99.90035  85.32670         33.18460  10.490000 102.16643  85.18979  97.57776  84.34016  97.63426  85.46387 102.22293  86.31350
      12  99.95686  86.45141         33.21226  10.490000 102.22293  86.31350  97.63426  85.46387  97.69079  86.58958 102.27947  87.43921
      12 100.01342  87.57811         33.23995  10.490000 102.27947  87.43921  97.69079  86.58958  97.74738  87.71728 102.33605  88.56691
      12 100.07003  88.70681         33.26766  10.490000 102.33605  88.56691  97.74738  87.71728  97.80401  88.84697 102.39269  89.69660
      12 100.12669  89.83751         33.29540  10.490000 102.39269  89.69660  97.80401  88.84697  97.86070  89.97867 102.44937  90.82830
      12 100.18340  90.97020         33.32315  10.490000 102.44937  90.82830  97.86070  89.97867  97.91742  91.11237 102.50609  91.96200
      12 100.24015  92.10491         33.35093  10.490000 102.50609  91.96200  97.91742  91.11237  97.97420  92.24808 102.56287  93.09771
      12 100.29695  93.24162         33.37874  10.490000 102.56287  93.09771  97.97420  92.24808  98.03102  93.38580 102.61969  94.23543
      12 100.35379  94.38035         33.40657  10.490000 102.61969  94.23543  98.03102  93.38580  98.08789  94.52553 102.67656  95.37516
      12 100.41069  95.52109         33.43442  10.490000 102.67656  95.37516  98.08789  94.52553  98.14481  95.66728 102.73348  96.51692
      12 100.46763  96.66385         33.46229  10.490000 102.73348  96.51692  98.14481  95.66728  98.20177  96.81106 102.79045  97.66069
      12 100.52462  97.80864         33.49019  10.490000 102.79045  97.66069  98.20177  96.81106  98.25879  97.95685 102.84746  98.80649
      12 100.58165  98.95545         33.51811  10.490000 102.84746  98.80649  98.25879  97.95685  98.31585  99.10468 102.90452  99.95431
      12 100.63874 100.10429         33.54605  10.490000 102.90452  99.95431  98.31585  99.10468  98.37295 100.25454 102.96162 101.10417
      12 100.69587 101.25516         33.57402  10.490000 102.96162 101.10417  98.37295 100.25454  98.43011 101.40643 103.01878 102.25606
      12 100.75305 102.40807         33.60201  10.490000 103.01878 102.25606  98.43011 101.40643  98.48731 102.56036 103.07598 103.40999
      12 100.81027 103.56303         33.63002  10.490000 103.07598 103.40999  98.48731 102.56036  98.54456 103.71633 103.13323 104.56596
      12 100.86755 104.72002         33.65806  10.490000 103.13323 104.56596  98.54456 103.71633  98.60186 104.87435 103.19053 105.72398
      12 100.92487 105.87906         33.68612  10.490000 103.19053 105.72398  98.60186 104.87435  98.65921 106.03442 103.24788 106.88405
      12 100.98224 107.04016         33.71420  10.490000 103.24788 106.88405  98.65921 106.03442  98.71660 107.19654 103.30527 108.04617
      12 101.03966 108.20330         33.74231  10.490000 103.30527 108.04617  98.71660 107.19654  98.77404 108.36071 103.36271 109.21034
      12 101.09712 109.36851         33.77044  10.490000 103.36271 109.21034  98.77404 108.36071  98.83153 109.52695 103.42020 110.37658
      12 101.15463 110.53578         33.79859  10.490000 103.42020 110.37658  98.83153 109.52695  98.88907 110.69525 103.47774 111.54488
      12 101.21220 111.70511         33.82677  10.490000 103.47774 111.54488  98.88907 110.69525  98.94665 111.86561 103.53532 112.71524
      12 101.26981 112.87651         33.85497  10.490000 103.53532 112.71524  98.94665 111.86561  99.00429 113.03805 103.59296 113.88768
      12 101.32746 114.04998         33.88319  10.490000 103.59296 113.88768  99.00429 113.03805  99.06197 114.21256 103.65064 115.06219
      12 101.38517 115.22553         33.91144  10.490000 103.65064 115.06219  99.06197 114.21256  99.11970 115.38915 103.70837 116.23878
      12 101.44292 116.40316         33.93971  10.490000 103.70837 116.23878  99.11970 115.38915  99.17747 116.56781 103.76615 117.41745
      12 101.50072 117.58287         33.96801  10.490000 103.76615 117.41745  99.17747 116.56781  99.23530 117.74857 103.82397 118.59820
      12 101.55857 118.76467         33.99633  10.490000 103.82397 118.59820  99.23530 117.74857  99.29317 118.93141 103.88185 119.78104
      12 101.61647 119.94855         34.02467  10.490000 103.88185 119.78104  99.29317 118.93141  99.35110 120.11634 103.93977 120.96597
      12 101.67442 121.13453         34.05303  10.490000 103.93977 120.96597  99.35110 120.11634  99.40907 121.30337 103.99774 122.15300
      12 101.73241 122.32261         34.08142  10.490000 103.99774 122.15300  99.40907 121.30337  99.46709 122.49250 104.05576 123.34213
      12 101.79046 123.51279         34.10984  10.490000 104.05576 123.34213  99.46709 122.49250  99.52515 123.68373 104.11382 124.53336
      12 101.84855 124.70507         34.13827  10.490000 104.11382 124.53336  99.52515 123.68373  99.58327 124.87706 104.17194 125.72669
      12 101.90669 125.89946         34.16673  10.490000 104.17194 125.72669  99.58327 124.87706  99.64143 126.07251 104.23010 126.92214
      12 101.96487 127.09596         34.19522  10.490000 104.23010 126.92214  99.64143 126.07251  99.69965 127.27006 104.28832 128.11970
      12 102.02311 128.29458         34.22373  10.490000 104.28832 128.11970  99.69965 127.27006  99.75791 128.46974 104.34658 129.31937
      11 114.87616   0.45114         33.74231  11.710000 117.12582   0.43482 112.55628  -0.51232 112.62650   0.46769 117.19604   1.41483
      11 114.94641   1.43203         33.77044  11.710000 117.19604   1.41483 112.62650   0.46769 112.69678   1.44946 117.26632   2.39659
      11 115.01672   2.41466         33.79859  11.710000 117.26632   2.39659 112.69678   1.44946 112.76712   2.43297 117.33666   3.38011
      11 115.08708   3.39906         33.82677  11.710000 117.33666   3.38011 112.76712   2.43297 112.83751   3.41824 117.40705   4.36538
      11 115.15751   4.38521         33.85497  11.710000 117.40705   4.36538 112.83751   3.41824 112.90796   4.40527 117.47751   5.35241
      11 115.22799   5.37312         33.88319  11.710000 117.47751   5.35241 112.90796   4.40527 112.97848   5.39407 117.54802   6.34120
      11 115.29853   6.36280         33.91144  11.710000 117.54802   6.34120 112.97848   5.39407 113.04905   6.38462 117.61859   7.33176
      11 115.36913   7.35424         33.93971  11.710000 117.61859   7.33176 113.04905   6.38462 113.11968   7.37695 117.68922   8.32409
      11 115.43979   8.34745         33.96801  11.710000 117.68922   8.32409 113.11968   7.37695 113.19037   8.37105 117.75991   9.31819
      11 115.51051   9.34244         33.99633  11.710000 117.75991   9.31819 113.19037   8.37105 113.26112   9.36692 117.83066  10.31406
      11 115.58129  10.33920         34.02467  11.710000 117.83066  10.31406 113.26112   9.36692 113.33192  10.36457 117.90146  11.31171
      11 115.65213  11.33774         34.05303  11.710000 117.90146  11.31171 113.33192  10.36457 113.40279  11.36400 117.97233  12.31114
      11 115.72302  12.33806         34.08142  11.710000 117.97233  12.31114 113.40279  11.36400 113.47371  12.36522 118.04326  13.31235
      11 115.79398  13.34017         34.10984  11.710000 118.04326  13.31235 113.47371  12.36522 113.54470  13.36822 118.11424  14.31536
      11 115.86499  14.34406         34.13827  11.710000 118.11424  14.31536 113.54470  13.36822 113.61574  14.37301 118.18528  15.32015
      11 115.93606  15.34975         34.16673  11.710000 118.18528  15.32015 113.61574  14.37301 113.68685  15.37959 118.25639  16.32673
      11 116.00720  16.35723         34.19522  11.710000 118.25639  16.32673 113.68685  15.37959 113.75801  16.38797 118.32755  17.33511
      11 116.07839  17.36651         34.22373  11.710000 118.32755  17.33511 113.75801  16.38797 113.82923  17.39815 118.39877  18.34529
      11 116.14964  18.37759         34.25226  11.710000 118.39877  18.34529 113.82923  17.39815 113.90051  18.41013 118.47005  19.35727
      11 116.22095  19.39047         34.28081  11.710000 118.47005  19.35727 113.90051  18.41013 113.97185  19.42392 118.54139  20.37106
      11 116.29232  20.40516         34.30939  11.710000 118.54139  20.37106 113.97185  19.42392 114.04325  20.43951 118.61279  21.38665
      11 116.36375  21.42167         34.33799  11.710000 118.61279  21.38665 114.04325  20.43951 114.11471  21.45692 118.68425  22.40406
      11 116.43524  22.43998         34.36662  11.710000 118.68425  22.40406 114.11471  21.45692 114.18623  22.47614 118.75577  23.42328
      11 116.50679  23.46011         34.39527  11.710000 118.75577  23.42328 114.18623  22.47614 114.25781  23.49718 118.82735  24.44432
      11 116.57839  24.48206         34.42395  11.710000 118.82735  24.44432 114.25781  23.49718 114.32944  24.52004 118.89898  25.46718
      11 116.65006  25.50583         34.45265  11.710000 118.89898  25.46718 114.32944  24.52004 114.40114  25.54472 118.97068  26.49186
      11 116.72179  26.53143         34.48137  11.710000 118.97068  26.49186 114.40114  25.54472 114.47290  26.57123 119.04244  27.51837
      11 116.79358  27.55885         34.51011  11.710000 119.04244  27.51837 114.47290  26.57123 114.54472  27.59958 119.11426  28.54671
      11 116.86542  28.58811         34.53888  11.710000 119.11426  28.54671 114.54472  27.59958 114.61659  28.62975 119.18613  29.57689
      11 116.93733  29.61920         34.56768  11.710000 119.18613  29.57689 114.61659  28.62975 114.68853  29.66176 119.25807  30.60890
      11 117.00930  30.65213         34.59650  11.710000 119.25807  30.60890 114.68853  29.66176 114.76053  30.69561 119.33007  31.64275
      11 117.08133  31.68691         34.62534  11.710000 119.33007  31.64275 114.76053  30.69561 114.83258  31.73131 119.40213  32.67844
      11 117.15341  32.72352         34.65421  11.710000 119.40213  32.67844 114.83258  31.73131 114.90470  32.76885 119.47424  33.71599
      11 117.22556  33.76199         34.68310  11.710000 119.47424  33.71599 114.90470  32.76885 114.97688  33.80824 119.54642  34.75537
      11 117.29777  34.80230         34.71201  11.710000 119.54642  34.75537 114.97688  33.80824 115.04912  34.84948 119.61866  35.79662
      11 117.37004  35.84447         34.74095  11.710000 119.61866  35.79662 115.04912  34.84948 115.12141  35.89258 119.69096  36.83971
      11 117.44236  36.88850         34.76991  11.710000 119.69096  36.83971 115.12141  35.89258 115.19377  36.93753 119.76331  37.88467
      11 117.51475  37.93439         34.79890  11.710000 119.76331  37.88467 115.19377  36.93753 115.26619  37.98435 119.83573  38.93149
      11 117.58720  38.98214         34.82791  11.710000 119.83573  38.93149 115.26619  37.98435 115.33867  39.03304 119.90821  39.98017
      11 117.65971  40.03176         34.85695  11.710000 119.90821  39.98017 115.33867  39.03304 115.41121  40.08359 119.98075  41.03073
      11 117.73228  41.08324         34.88601  11.710000 119.98075  41.03073 115.41121  40.08359 115.48381  41.13601 120.05335  42.08315
      11 117.80491  42.13661         34.91509  11.710000 120.05335  42.08315 115.48381  41.13601 115.55647  42.19031 120.12601  43.13745
      11 117.87760  43.19184         34.94420  11.710000 120.12601  43.13745 115.55647  42.19031 115.62919  43.24649 120.19873  44.19363
      11 117.95035  44.24896         34.97333  11.710000 120.19873  44.19363 115.62919  43.24649 115.70197  44.30455 120.27151  45.25168
      11 118.02316  45.30796         35.00249  11.710000 120.27151  45.25168 115.70197  44.30455 115.77481  45.36449 120.34435  46.31163
      11 118.09603  46.36885         35.03167  11.710000 120.34435  46.31163 115.77481  45.36449 115.84771  46.42632 120.41726  47.37346
      11 118.16897  47.43163         35.06087  11.710000 120.41726  47.37346 115.84771  46.42632 115.92068  47.49004 120.49022  48.43718
      11 118.24196  48.49629         35.09010  11.710000 120.49022  48.43718 115.92068  47.49004 115.99370  48.55566 120.56324  49.50280
      11 118.31502  49.56286         35.11936  11.710000 120.56324  49.50280 115.99370  48.55566 116.06679  49.62317 120.63633  50.57031
      11 118.38813  50.63132         35.14864  11.710000 120.63633  50.57031 116.06679  49.62317 116.13993  50.69259 120.70947  51.63973
      11 118.46131  51.70169         35.17794  11.710000 120.70947  51.63973 116.13993  50.69259 116.21314  51.76391 120.78268  52.71105
      11 118.53454  52.77396         35.20727  11.710000 120.78268  52.71105 116.21314  51.76391 116.28641  52.83713 120.85595  53.78427
      11 118.60784  53.84815         35.23662  11.710000 120.85595  53.78427 116.28641  52.83713 116.35974  53.91227 120.92928  54.85941
      11 118.68120  54.92424         35.26599  11.710000 120.92928  54.85941 116.35974  53.91227 116.43313  54.98932 121.00267  55.93646
      11 118.75462  56.00225         35.29539  11.710000 121.00267  55.93646 116.43313  54.98932 116.50658  56.06829 121.07612  57.01543
      11 118.82811  57.08218         35.32482  11.710000 121.07612  57.01543 116.50658  56.06829 116.58009  57.14918 121.14963  58.09632
      11 118.90165  58.16403         35.35427  11.710000 121.14963  58.09632 116.58009  57.14918 116.65367  58.23199 121.22321  59.17913
      11 118.97525  59.24781         35.38374  11.710000 121.22321  59.17913 116.65367  58.23199 116.72730  59.31674 121.29684  60.26387
      11 119.04892  60.33351         35.41324  11.710000 121.29684  60.26387 116.72730  59.31674 116.80100  60.40341 121.37054  61.35054
      11 119.12265  61.42115         35.44276  11.710000 121.37054  61.35054 116.80100  60.40341 116.87476  61.49201 121.44430  62.43915
      11 119.19644  62.51072         35.47231  11.710000 121.44430  62.43915 116.87476  61.49201 116.94858  62.58255 121.51812  63.52969
      11 119.27029  63.60223         35.50188  11.710000 121.51812  63.52969 116.94858  62.58255 117.02246  63.67504 121.59200  64.62217
      11 119.34420  64.69569         35.53148  11.710000 121.59200  64.62217 117.02246  63.67504 117.09640  64.76946 121.66594  65.71660
      11 119.41817  65.79109         35.56110  11.710000 121.66594  65.71660 117.09640  64.76946 117.17040  65.86584 121.73995  66.81297
      11 119.49221  66.88844         35.59075  11.710000 121.73995  66.81297 117.17040  65.86584 117.24447  66.96416 121.81401  67.91130
      11 119.56631  67.98774         35.62042  11.710000 121.81401  67.91130 117.24447  66.96416 117.31860  68.06444 121.88814  69.01158
      11 119.64046  69.08900         35.65012  11.710000 121.88814  69.01158 117.31860  68.06444 117.39279  69.16667 121.96233  70.11381
      11 119.71469  70.19221         35.67984  11.710000 121.96233  70.11381 117.39279  69.16667 117.46704  70.27087 122.03658  71.21801
      11 119.78897  71.29739         35.70958  11.710000 122.03658  71.21801 117.46704  70.27087 117.54135  71.37703 122.11089  72.32417
      11 119.86331  72.40453         35.73935  11.710000 122.11089  72.32417 117.54135  71.37703 117.61573  72.48516 122.18527  73.43230
      11 119.93772  73.51364         35.76915  11.710000 122.18527  73.43230 117.61573  72.48516 117.69017  73.59526 122.25971  74.54239
      11 120.01219  74.62473         35.79897  11.710000 122.25971  74.54239 117.69017  73.59526 117.76467  74.70733 122.33421  75.65447
      11 120.08672  75.73779         35.82881  11.710000 122.33421  75.65447 117.76467  74.70733 117.83923  75.82138 122.40877  76.76852
      11 120.16131  76.85283         35.85868  11.710000 122.40877  76.76852 117.83923  75.82138 117.91385  76.93741 122.48339  77.88455
      11 120.23597  77.96985         35.88858  11.710000 122.48339  77.88455 117.91385  76.93741 117.98854  78.05542 122.55808  79.00256
      11 120.31068  79.08886         35.91850  11.710000 122.55808  79.00256 117.98854  78.05542 118.06329  79.17543 122.63283  80.12256
      11 120.38546  80.20986         35.94844  11.710000 122.63283  80.12256 118.06329  79.17543 118.13810  80.29742 122.70764  81.24456
      11 120.46030  81.33285         35.97841  11.710000 122.70764  81.24456 118.13810  80.29742 118.21297  81.42141 122.78251  82.36855
      11 120.53521  82.45784         36.00841  11.710000 122.78251  82.36855 118.21297  81.42141 118.28790  82.54740 122.85745  83.49453
      11 120.61017  83.58483         36.03843  11.710000 122.85745  83.49453 118.28790  82.54740 118.36290  83.67538 122.93244  84.62252
      11 120.68520  84.71382         36.06847  11.710000 122.93244  84.62252 118.36290  83.67538 118.43796  84.80538 123.00750  85.75252
      11 120.76029  85.84481         36.09854  11.710000 123.00750  85.75252 118.43796  84.80538 118.51309  85.93738 123.08263  86.88452
      11 120.83545  86.97782         36.12864  11.710000 123.08263  86.88452 118.51309  85.93738 118.58827  87.07139 123.15781  88.01853
      11 120.91067  88.11284         36.15876  11.710000 123.15781  88.01853 118.58827  87.07139 118.66352  88.20742 123.23306  89.15456
      11 120.98595  89.24988         36.18890  11.710000 123.23306  89.15456 118.66352  88.20742 118.73883  89.34547 123.30837  90.29261
      11 121.06129  90.38894         36.21907  11.710000 123.30837  90.29261 118.73883  89.34547 118.81420  90.48554 123.38375  91.43268
      11 121.13669  91.53002         36.24927  11.710000 123.38375  91.43268 118.81420  90.48554 118.88964  91.62763 123.45918  92.57477
      11 121.21216  92.67313         36.27949  11.710000 123.45918  92.57477 118.88964  91.62763 118.96514  92.77176 123.53468  93.71890
      11 121.28769  93.81827         36.30973  11.710000 123.53468  93.71890 118.96514  92.77176 119.04070  93.91791 123.61024  94.86505
      11 121.36329  94.96544         36.34000  11.710000 123.61024  94.86505 119.04070  93.91791 119.11633  95.06611 123.68587  96.01325
      11 121.43894  96.11466         36.37030  11.710000 123.68587  96.01325 119.11633  95.06611 119.19202  96.21634 123.76156  97.16348
      11 121.51466  97.26591         36.40062  11.710000 123.76156  97.16348 119.19202  96.21634 119.26777  97.36862 123.83731  98.31575
      11 121.59045  98.41921         36.43097  11.710000 123.83731  98.31575 119.26777  97.36862 119.34358  98.52294 123.91312  99.47008
      11 121.66629  99.57456         36.46134  11.710000 123.91312  99.47008 119.34358  98.52294 119.41946  99.67931 123.98900 100.62645
      11 121.74220 100.73196         36.49173  11.710000 123.98900 100.62645 119.41946  99.67931 119.49540 100.83774 124.06494 101.78488
      11 121.81817 101.89141         36.52216  11.710000 124.06494 101.78488 119.49540 100.83774 119.57141 101.99822 124.14095 102.94536
      11 121.89421 103.05293         36.55261  11.710000 124.14095 102.94536 119.57141 101.99822 119.64747 103.16077 124.21702 104.10791
      11 121.97031 104.21650         36.58308  11.710000 124.21702 104.10791 119.64747 103.16077 119.72361 104.32538 124.29315 105.27251
      11 122.04647 105.38215         36.61358  11.710000 124.29315 105.27251 119.72361 104.32538 119.79980 105.49205 124.36934 106.43919
      11 122.12270 106.54986         36.64410  11.710000 124.36934 106.43919 119.79980 105.49205 119.87606 106.66080 124.44560 107.60794
      11 122.19899 107.71964         36.67465  11.710000 124.44560 107.60794 119.87606 106.66080 119.95238 107.83162 124.52192 108.77876
      11 122.27534 108.89151         36.70523  11.710000 124.52192 108.77876 119.95238 107.83162 120.02877 109.00453 124.59831 109.95166
      11 122.35176 110.06545         36.73583  11.710000 124.59831 109.95166 120.02877 109.00453 120.10521 110.17951 124.67476 111.12665
      11 122.42824 111.24148         36.76645  11.710000 124.67476 111.12665 120.10521 110.17951 120.18173 111.35658 124.75127 112.30372
      11 122.50479 112.41959         36.79710  11.710000 124.75127 112.30372 120.18173 111.35658 120.25830 112.53574 124.82785 113.48288
      11 122.58139 113.59979         36.82778  11.710000 124.82785 113.48288 120.25830 112.53574 120.33494 113.71699 124.90449 114.66413
      11 122.65807 114.78209         36.85848  11.710000 124.90449 114.66413 120.33494 113.71699 120.41165 114.90034 124.98119 115.84748
      11 122.73480 115.96649         36.88921  11.710000 124.98119 115.84748 120.41165 114.90034 120.48842 116.08579 125.05796 117.03292
      11 122.81160 117.15299         36.91996  11.710000 125.05796 117.03292 120.48842 116.08579 120.56525 117.27334 125.13479 118.22048
      11 122.88847 118.34160         36.95074  11.710000 125.13479 118.22048 120.56525 117.27334 120.64215 118.46300 125.21169 119.41014
      11 122.96540 119.53231         36.98155  11.710000 125.21169 119.41014 120.64215 118.46300 120.71911 119.65477 125.28865 120.60191
      11 123.04239 120.72514         37.01238  11.710000 125.28865 120.60191 120.71911 119.65477 120.79613 120.84865 125.36567 121.79579
      11 123.11945 121.92008         37.04324  11.710000 125.36567 121.79579 120.79613 120.84865 120.87322 122.04466 125.44276 122.99179
      11 123.19657 123.11715         37.07412  11.710000 125.44276 122.99179 120.87322 122.04466 120.95037 123.24278 125.51991 124.18992
      11 123.27375 124.31633         37.10503  11.710000 125.51991 124.18992 120.95037 123.24278 121.02759 124.44303 125.59713 125.39017
      11 123.35100 125.51765         37.13596  11.710000 125.59713 125.39017 121.02759 124.44303 121.10487 125.64541 125.67441 126.59255
      11 123.42832 126.72109         37.16692  11.710000 125.67441 126.59255 121.10487 125.64541 121.18222 126.84992 125.75176 127.79706
      11 123.50569 127.92667         37.19791  11.710000 125.75176 127.79706 121.18222 126.84992 121.25963 128.05657 125.82917 129.00371
