\wavsamp version 5.0 (Thu May  9 10:19:35 PDT 2002)
\processing time 19:49:11 PST 01/05/2004
\character channelID = 3
| order |x_center |y_center |   wavelength   |  angle   |   x0    |   y0    |   x1    |   y1    |   x2    |   y2    |   x3    |   y3    |
| int   |  real   |  real   |    real        |   real   |  real   |  real   |  real   |  real   |  real   |  real   |  real   |  real   |
      20   7.63430   0.00005         18.72780   0.700000  10.04778  -0.53842   5.24814  -0.59706   5.22083   0.53851  10.02047   0.59715
      20   7.60698   1.13610         18.74341   0.700000  10.02047   0.59715   5.22083   0.53851   5.19349   1.67504   9.99313   1.73368
      20   7.57963   2.27310         18.75904   0.700000   9.99313   1.73368   5.19349   1.67504   5.16613   2.81251   9.96577   2.87115
      20   7.55226   3.41104         18.77468   0.700000   9.96577   2.87115   5.16613   2.81251   5.13875   3.95093   9.93839   4.00957
      20   7.52487   4.54994         18.79033   0.700000   9.93839   4.00957   5.13875   3.95093   5.11135   5.09030   9.91099   5.14894
      20   7.49746   5.68978         18.80600   0.700000   9.91099   5.14894   5.11135   5.09030   5.08392   6.23062   9.88356   6.28926
      20   7.47002   6.83058         18.82167   0.700000   9.88356   6.28926   5.08392   6.23062   5.05647   7.37189   9.85611   7.43053
      20   7.44256   7.97232         18.83736   0.700000   9.85611   7.43053   5.05647   7.37189   5.02900   8.51411   9.82864   8.57276
      20   7.41507   9.11502         18.85307   0.700000   9.82864   8.57276   5.02900   8.51411   5.00150   9.65729   9.80115   9.71593
      20   7.38757  10.25867         18.86879   0.700000   9.80115   9.71593   5.00150   9.65729   4.97399  10.80142   9.77363  10.86006
      20   7.36004  11.40328         18.88452   0.700000   9.77363  10.86006   4.97399  10.80142   4.94644  11.94650   9.74609  12.00514
      20   7.33248  12.54884         18.90026   0.700000   9.74609  12.00514   4.94644  11.94650   4.91888  13.09253   9.71852  13.15118
      20   7.30491  13.69535         18.91602   0.700000   9.71852  13.15118   4.91888  13.09253   4.89129  14.23953   9.69093  14.29817
      20   7.27731  14.84282         18.93179   0.700000   9.69093  14.29817   4.89129  14.23953   4.86368  15.38747   9.66332  15.44611
      20   7.24969  15.99125         18.94757   0.700000   9.66332  15.44611   4.86368  15.38747   4.83605  16.53638   9.63569  16.59502
      20   7.22204  17.14063         18.96337   0.700000   9.63569  16.59502   4.83605  16.53638   4.80839  17.68624   9.60804  17.74488
      20   7.19437  18.29097         18.97918   0.700000   9.60804  17.74488   4.80839  17.68624   4.78071  18.83706   9.58036  18.89570
      20   7.16668  19.44227         18.99500   0.700000   9.58036  18.89570   4.78071  18.83706   4.75301  19.98884   9.55265  20.04748
      20   7.13897  20.59453         19.01083   0.700000   9.55265  20.04748   4.75301  19.98884   4.72529  21.14158   9.52493  21.20023
      20   7.11123  21.74776         19.02668   0.700000   9.52493  21.20023   4.72529  21.14158   4.69754  22.29529   9.49718  22.35393
      20   7.08347  22.90194         19.04255   0.700000   9.49718  22.35393   4.69754  22.29529   4.66977  23.44995   9.46941  23.50859
      20   7.05569  24.05709         19.05842   0.700000   9.46941  23.50859   4.66977  23.44995   4.64197  24.60558   9.44161  24.66422
      20   7.02788  25.21319         19.07431   0.700000   9.44161  24.66422   4.64197  24.60558   4.61415  25.76217   9.41379  25.82081
      20   7.00005  26.37027         19.09021   0.700000   9.41379  25.82081   4.61415  25.76217   4.58631  26.91972   9.38595  26.97836
      20   6.97220  27.52830         19.10613   0.700000   9.38595  26.97836   4.58631  26.91972   4.55845  28.07824   9.35809  28.13688
      20   6.94432  28.68731         19.12206   0.700000   9.35809  28.13688   4.55845  28.07824   4.53056  29.23773   9.33020  29.29637
      20   6.91643  29.84728         19.13800   0.700000   9.33020  29.29637   4.53056  29.23773   4.50265  30.39818   9.30229  30.45682
      20   6.88850  31.00821         19.15395   0.700000   9.30229  30.45682   4.50265  30.39818   4.47471  31.55960   9.27436  31.61824
      20   6.86056  32.17012         19.16992   0.700000   9.27436  31.61824   4.47471  31.55960   4.44676  32.72199   9.24640  32.78063
      20   6.83259  33.33299         19.18590   0.700000   9.24640  32.78063   4.44676  32.72199   4.41878  33.88535   9.21842  33.94399
      20   6.80460  34.49683         19.20190   0.700000   9.21842  33.94399   4.41878  33.88535   4.39077  35.04967   9.19041  35.10831
      20   6.77658  35.66164         19.21790   0.700000   9.19041  35.10831   4.39077  35.04967   4.36274  36.21497   9.16239  36.27361
      20   6.74854  36.82743         19.23393   0.700000   9.16239  36.27361   4.36274  36.21497   4.33469  37.38124   9.13434  37.43988
      20   6.72048  37.99418         19.24996   0.700000   9.13434  37.43988   4.33469  37.38124   4.30662  38.54848   9.10626  38.60712
      20   6.69239  39.16191         19.26601   0.700000   9.10626  38.60712   4.30662  38.54848   4.27852  39.71670   9.07816  39.77534
      20   6.66428  40.33061         19.28207   0.700000   9.07816  39.77534   4.27852  39.71670   4.25040  40.88589   9.05004  40.94453
      20   6.63615  41.50029         19.29815   0.700000   9.05004  40.94453   4.25040  40.88589   4.22226  42.05605   9.02190  42.11469
      20   6.60799  42.67094         19.31423   0.700000   9.02190  42.11469   4.22226  42.05605   4.19409  43.22719   8.99373  43.28583
      20   6.57981  43.84257         19.33034   0.700000   8.99373  43.28583   4.19409  43.22719   4.16590  44.39930   8.96554  44.45795
      20   6.55161  45.01517         19.34645   0.700000   8.96554  44.45795   4.16590  44.39930   4.13768  45.57240   8.93732  45.63104
      20   6.52338  46.18875         19.36258   0.700000   8.93732  45.63104   4.13768  45.57240   4.10944  46.74647   8.90909  46.80511
      20   6.49513  47.36331         19.37872   0.700000   8.90909  46.80511   4.10944  46.74647   4.08118  47.92152   8.88082  47.98016
      20   6.46686  48.53885         19.39488   0.700000   8.88082  47.98016   4.08118  47.92152   4.05290  49.09755   8.85254  49.15619
      20   6.43856  49.71537         19.41105   0.700000   8.85254  49.15619   4.05290  49.09755   4.02459  50.27456   8.82423  50.33320
      20   6.41024  50.89287         19.42723   0.700000   8.82423  50.33320   4.02459  50.27456   3.99625  51.45255   8.79590  51.51119
      20   6.38190  52.07136         19.44343   0.700000   8.79590  51.51119   3.99625  51.45255   3.96790  52.63152   8.76754  52.69016
      20   6.35353  53.25082         19.45964   0.700000   8.76754  52.69016   3.96790  52.63152   3.93952  53.81148   8.73916  53.87012
      20   6.32514  54.43127         19.47586   0.700000   8.73916  53.87012   3.93952  53.81148   3.91111  54.99242   8.71076  55.05106
      20   6.29672  55.61270         19.49210   0.700000   8.71076  55.05106   3.91111  54.99242   3.88269  56.17434   8.68233  56.23298
      20   6.26828  56.79512         19.50835   0.700000   8.68233  56.23298   3.88269  56.17434   3.85424  57.35725   8.65388  57.41589
      20   6.23982  57.97852         19.52461   0.700000   8.65388  57.41589   3.85424  57.35725   3.82576  58.54115   8.62540  58.59979
      20   6.21133  59.16291         19.54089   0.700000   8.62540  58.59979   3.82576  58.54115   3.79726  59.72603   8.59690  59.78467
      20   6.18282  60.34829         19.55718   0.700000   8.59690  59.78467   3.79726  59.72603   3.76874  60.91190   8.56838  60.97055
      20   6.15429  61.53465         19.57348   0.700000   8.56838  60.97055   3.76874  60.91190   3.74019  62.09876   8.53984  62.15741
      20   6.12573  62.72201         19.58980   0.700000   8.53984  62.15741   3.74019  62.09876   3.71162  63.28661   8.51127  63.34525
      20   6.09715  63.91035         19.60613   0.700000   8.51127  63.34525   3.71162  63.28661   3.68303  64.47545   8.48267  64.53409
      20   6.06854  65.09969         19.62248   0.700000   8.48267  64.53409   3.68303  64.47545   3.65441  65.66528   8.45406  65.72393
      20   6.03991  66.29002         19.63884   0.700000   8.45406  65.72393   3.65441  65.66528   3.62577  66.85611   8.42541  66.91475
      20   6.01126  67.48134         19.65521   0.700000   8.42541  66.91475   3.62577  66.85611   3.59711  68.04792   8.39675  68.10656
      20   5.98258  68.67365         19.67160   0.700000   8.39675  68.10656   3.59711  68.04792   3.56842  69.24073   8.36806  69.29937
      20   5.95388  69.86695         19.68799   0.700000   8.36806  69.29937   3.56842  69.24073   3.53970  70.43454   8.33935  70.49318
      20   5.92516  71.06126         19.70441   0.700000   8.33935  70.49318   3.53970  70.43454   3.51097  71.62934   8.31061  71.68798
      20   5.89641  72.25655         19.72084   0.700000   8.31061  71.68798   3.51097  71.62934   3.48221  72.82513   8.28185  72.88377
      20   5.86764  73.45285         19.73728   0.700000   8.28185  72.88377   3.48221  72.82513   3.45342  74.02192   8.25306  74.08056
      20   5.83884  74.65014         19.75373   0.700000   8.25306  74.08056   3.45342  74.02192   3.42461  75.21971   8.22425  75.27835
      20   5.81002  75.84843         19.77020   0.700000   8.22425  75.27835   3.42461  75.21971   3.39578  76.41850   8.19542  76.47714
      20   5.78117  77.04772         19.78668   0.700000   8.19542  76.47714   3.39578  76.41850   3.36692  77.61829   8.16656  77.67693
      20   5.75230  78.24801         19.80318   0.700000   8.16656  77.67693   3.36692  77.61829   3.33804  78.81908   8.13768  78.87772
      20   5.72341  79.44929         19.81969   0.700000   8.13768  78.87772   3.33804  78.81908   3.30914  80.02087   8.10878  80.07951
      20   5.69449  80.65158         19.83621   0.700000   8.10878  80.07951   3.30914  80.02087   3.28021  81.22366   8.07985  81.28230
      20   5.66555  81.85488         19.85275   0.700000   8.07985  81.28230   3.28021  81.22366   3.25125  82.42745   8.05090  82.48610
      20   5.63659  83.05917         19.86930   0.700000   8.05090  82.48610   3.25125  82.42745   3.22228  83.63225   8.02192  83.69089
      20   5.60760  84.26447         19.88586   0.700000   8.02192  83.69089   3.22228  83.63225   3.19328  84.83805   7.99292  84.89670
      20   5.57858  85.47078         19.90244   0.700000   7.99292  84.89670   3.19328  84.83805   3.16425  86.04486   7.96389  86.10350
      20   5.54955  86.67809         19.91903   0.700000   7.96389  86.10350   3.16425  86.04486   3.13520  87.25268   7.93484  87.31132
      20   5.52048  87.88641         19.93564   0.700000   7.93484  87.31132   3.13520  87.25268   3.10613  88.46150   7.90577  88.52014
      20   5.49140  89.09573         19.95226   0.700000   7.90577  88.52014   3.10613  88.46150   3.07703  89.67133   7.87667  89.72997
      20   5.46229  90.30607         19.96889   0.700000   7.87667  89.72997   3.07703  89.67133   3.04790  90.88216   7.84755  90.94081
      20   5.43315  91.51741         19.98554   0.700000   7.84755  90.94081   3.04790  90.88216   3.01876  92.09401   7.81840  92.15265
      20   5.40399  92.72976         20.00220   0.700000   7.81840  92.15265   3.01876  92.09401   2.98959  93.30687   7.78923  93.36551
      20   5.37481  93.94312         20.01888   0.700000   7.78923  93.36551   2.98959  93.30687   2.96039  94.52074   7.76003  94.57938
      20   5.34560  95.15750         20.03557   0.700000   7.76003  94.57938   2.96039  94.52074   2.93117  95.73562   7.73081  95.79426
      20   5.31637  96.37289         20.05227   0.700000   7.73081  95.79426   2.93117  95.73562   2.90193  96.95151   7.70157  97.01015
      20   5.28711  97.58929         20.06899   0.700000   7.70157  97.01015   2.90193  96.95151   2.87266  98.16842   7.67230  98.22706
      20   5.25783  98.80670         20.08572   0.700000   7.67230  98.22706   2.87266  98.16842   2.84336  99.38634   7.64301  99.44498
      20   5.22853 100.02513         20.10246   0.700000   7.64301  99.44498   2.84336  99.38634   2.81405 100.60528   7.61369 100.66392
      20   5.19920 101.24457         20.11922   0.700000   7.61369 100.66392   2.81405 100.60528   2.78470 101.82523   7.58435 101.88387
      20   5.16984 102.46504         20.13600   0.700000   7.58435 101.88387   2.78470 101.82523   2.75534 103.04620   7.55498 103.10484
      20   5.14046 103.68652         20.15278   0.700000   7.55498 103.10484   2.75534 103.04620   2.72595 104.26819   7.52559 104.32683
      20   5.11106 104.90901         20.16958   0.700000   7.52559 104.32683   2.72595 104.26819   2.69653 105.49120   7.49617 105.54984
      20   5.08163 106.13253         20.18640   0.700000   7.49617 105.54984   2.69653 105.49120   2.66709 106.71522   7.46673 106.77387
      20   5.05218 107.35707         20.20323   0.700000   7.46673 106.77387   2.66709 106.71522   2.63763 107.94027   7.43727 107.99891
      20   5.02270 108.58263         20.22007   0.700000   7.43727 107.99891   2.63763 107.94027   2.60814 109.16634   7.40778 109.22498
      20   4.99320 109.80921         20.23693   0.700000   7.40778 109.22498   2.60814 109.16634   2.57863 110.39343   7.37827 110.45207
      20   4.96368 111.03681         20.25380   0.700000   7.37827 110.45207   2.57863 110.39343   2.54909 111.62155   7.34873 111.68019
      20   4.93413 112.26544         20.27068   0.700000   7.34873 111.68019   2.54909 111.62155   2.51952 112.85068   7.31917 112.90933
      20   4.90455 113.49509         20.28758   0.700000   7.31917 112.90933   2.51952 112.85068   2.48994 114.08085   7.28958 114.13949
      20   4.87495 114.72576         20.30450   0.700000   7.28958 114.13949   2.48994 114.08085   2.46032 115.31204   7.25997 115.37068
      20   4.84533 115.95746         20.32142   0.700000   7.25997 115.37068   2.46032 115.31204   2.43069 116.54425   7.23033 116.60289
      20   4.81568 117.19019         20.33837   0.700000   7.23033 116.60289   2.43069 116.54425   2.40103 117.77749   7.20067 117.83613
      20   4.78600 118.42395         20.35532   0.700000   7.20067 117.83613   2.40103 117.77749   2.37134 119.01176   7.17098 119.07040
      20   4.75631 119.65873         20.37229   0.700000   7.17098 119.07040   2.37134 119.01176   2.34163 120.24706   7.14127 120.30570
      20   4.72658 120.89455         20.38928   0.700000   7.14127 120.30570   2.34163 120.24706   2.31189 121.48339   7.11153 121.54203
      20   4.69683 122.13139         20.40627   0.700000   7.11153 121.54203   2.31189 121.48339   2.28213 122.72075   7.08177 122.77939
      20   4.66706 123.36927         20.42329   0.700000   7.08177 122.77939   2.28213 122.72075   2.25235 123.95914   7.05199 124.01779
      20   4.63726 124.60818         20.44031   0.700000   7.05199 124.01779   2.25235 123.95914   2.22254 125.19857   7.02218 125.25721
      20   4.60744 125.84812         20.45735   0.700000   7.02218 125.25721   2.22254 125.19857   2.19270 126.43903   6.99234 126.49767
      20   4.57759 127.08909         20.47441   0.700000   6.99234 126.49767   2.19270 126.43903   2.16284 127.68052   6.96248 127.73916
      19  14.67762   0.23640         19.67160   1.920000  17.08536  -0.22155  12.28805  -0.38237  12.26987   0.69434  17.06718   0.85516
      19  14.65943   1.31355         19.68799   1.920000  17.06718   0.85516  12.26987   0.69434  12.25168   1.77194  17.04898   1.93276
      19  14.64123   2.39161         19.70441   1.920000  17.04898   1.93276  12.25168   1.77194  12.23347   2.85045  17.03077   3.01127
      19  14.62301   3.47056         19.72084   1.920000  17.03077   3.01127  12.23347   2.85045  12.21524   3.92985  17.01255   4.09067
      19  14.60478   4.55041         19.73728   1.920000  17.01255   4.09067  12.21524   3.92985  12.19700   5.01015  16.99431   5.17097
      19  14.58653   5.63116         19.75373   1.920000  16.99431   5.17097  12.19700   5.01015  12.17875   6.09135  16.97605   6.25217
      19  14.56827   6.71281         19.77020   1.920000  16.97605   6.25217  12.17875   6.09135  12.16048   7.17346  16.95778   7.33428
      19  14.54999   7.79537         19.78668   1.920000  16.95778   7.33428  12.16048   7.17346  12.14219   8.25646  16.93950   8.41728
      19  14.53169   8.87883         19.80318   1.920000  16.93950   8.41728  12.14219   8.25646  12.12389   9.34037  16.92120   9.50119
      19  14.51338   9.96319         19.81969   1.920000  16.92120   9.50119  12.12389   9.34037  12.10557  10.42518  16.90288  10.58600
      19  14.49506  11.04845         19.83621   1.920000  16.90288  10.58600  12.10557  10.42518  12.08724  11.51090  16.88455  11.67172
      19  14.47672  12.13462         19.85275   1.920000  16.88455  11.67172  12.08724  11.51090  12.06889  12.59752  16.86620  12.75834
      19  14.45837  13.22169         19.86930   1.920000  16.86620  12.75834  12.06889  12.59752  12.05053  13.68505  16.84784  13.84587
      19  14.44000  14.30967         19.88586   1.920000  16.84784  13.84587  12.05053  13.68505  12.03215  14.77348  16.82946  14.93430
      19  14.42161  15.39856         19.90244   1.920000  16.82946  14.93430  12.03215  14.77348  12.01376  15.86282  16.81107  16.02364
      19  14.40321  16.48836         19.91903   1.920000  16.81107  16.02364  12.01376  15.86282  11.99535  16.95307  16.79266  17.11389
      19  14.38479  17.57906         19.93564   1.920000  16.79266  17.11389  11.99535  16.95307  11.97693  18.04423  16.77423  18.20505
      19  14.36636  18.67067         19.95226   1.920000  16.77423  18.20505  11.97693  18.04423  11.95849  19.13630  16.75579  19.29712
      19  14.34792  19.76320         19.96889   1.920000  16.75579  19.29712  11.95849  19.13630  11.94004  20.22928  16.73734  20.39010
      19  14.32945  20.85663         19.98554   1.920000  16.73734  20.39010  11.94004  20.22928  11.92157  21.32317  16.71887  21.48399
      19  14.31098  21.95098         20.00220   1.920000  16.71887  21.48399  11.92157  21.32317  11.90308  22.41797  16.70039  22.57879
      19  14.29248  23.04624         20.01888   1.920000  16.70039  22.57879  11.90308  22.41797  11.88458  23.51368  16.68188  23.67450
      19  14.27397  24.14241         20.03557   1.920000  16.68188  23.67450  11.88458  23.51368  11.86606  24.61031  16.66337  24.77113
      19  14.25545  25.23949         20.05227   1.920000  16.66337  24.77113  11.86606  24.61031  11.84753  25.70785  16.64484  25.86867
      19  14.23691  26.33749         20.06899   1.920000  16.64484  25.86867  11.84753  25.70785  11.82898  26.80631  16.62629  26.96713
      19  14.21836  27.43641         20.08572   1.920000  16.62629  26.96713  11.82898  26.80631  11.81042  27.90568  16.60773  28.06650
      19  14.19979  28.53624         20.10246   1.920000  16.60773  28.06650  11.81042  27.90568  11.79184  29.00597  16.58915  29.16679
      19  14.18120  29.63699         20.11922   1.920000  16.58915  29.16679  11.79184  29.00597  11.77325  30.10718  16.57056  30.26800
      19  14.16260  30.73865         20.13600   1.920000  16.57056  30.26800  11.77325  30.10718  11.75464  31.20930  16.55195  31.37012
      19  14.14398  31.84124         20.15278   1.920000  16.55195  31.37012  11.75464  31.20930  11.73602  32.31235  16.53332  32.47317
      19  14.12535  32.94474         20.16958   1.920000  16.53332  32.47317  11.73602  32.31235  11.71738  33.41631  16.51468  33.57713
      19  14.10670  34.04916         20.18640   1.920000  16.51468  33.57713  11.71738  33.41631  11.69872  34.52119  16.49603  34.68201
      19  14.08804  35.15451         20.20323   1.920000  16.49603  34.68201  11.69872  34.52119  11.68005  35.62700  16.47736  35.78782
      19  14.06936  36.26077         20.22007   1.920000  16.47736  35.78782  11.68005  35.62700  11.66136  36.73372  16.45867  36.89454
      19  14.05067  37.36796         20.23693   1.920000  16.45867  36.89454  11.66136  36.73372  11.64266  37.84137  16.43997  38.00219
      19  14.03196  38.47607         20.25380   1.920000  16.43997  38.00219  11.64266  37.84137  11.62394  38.94995  16.42125  39.11077
      19  14.01323  39.58510         20.27068   1.920000  16.42125  39.11077  11.62394  38.94995  11.60521  40.05944  16.40252  40.22026
      19  13.99449  40.69506         20.28758   1.920000  16.40252  40.22026  11.60521  40.05944  11.58646  41.16986  16.38377  41.33068
      19  13.97573  41.80595         20.30450   1.920000  16.38377  41.33068  11.58646  41.16986  11.56770  42.28121  16.36500  42.44203
      19  13.95696  42.91776         20.32142   1.920000  16.36500  42.44203  11.56770  42.28121  11.54892  43.39348  16.34622  43.55430
      19  13.93817  44.03049         20.33837   1.920000  16.34622  43.55430  11.54892  43.39348  11.53012  44.50669  16.32743  44.66751
      19  13.91937  45.14416         20.35532   1.920000  16.32743  44.66751  11.53012  44.50669  11.51131  45.62081  16.30861  45.78163
      19  13.90055  46.25875         20.37229   1.920000  16.30861  45.78163  11.51131  45.62081  11.49248  46.73587  16.28979  46.89669
      19  13.88171  47.37428         20.38928   1.920000  16.28979  46.89669  11.49248  46.73587  11.47364  47.85186  16.27094  48.01268
      19  13.86286  48.49073         20.40627   1.920000  16.27094  48.01268  11.47364  47.85186  11.45478  48.96878  16.25209  49.12960
      19  13.84400  49.60811         20.42329   1.920000  16.25209  49.12960  11.45478  48.96878  11.43591  50.08663  16.23321  50.24745
      19  13.82511  50.72643         20.44031   1.920000  16.23321  50.24745  11.43591  50.08663  11.41702  51.20541  16.21432  51.36623
      19  13.80622  51.84567         20.45735   1.920000  16.21432  51.36623  11.41702  51.20541  11.39811  52.32512  16.19542  52.48594
      19  13.78730  52.96585         20.47441   1.920000  16.19542  52.48594  11.39811  52.32512  11.37919  53.44577  16.17649  53.60659
      19  13.76837  54.08697         20.49148   1.920000  16.17649  53.60659  11.37919  53.44577  11.36025  54.56735  16.15756  54.72817
      19  13.74943  55.20902         20.50856   1.920000  16.15756  54.72817  11.36025  54.56735  11.34130  55.68987  16.13860  55.85068
      19  13.73047  56.33200         20.52566   1.920000  16.13860  55.85068  11.34130  55.68987  11.32233  56.81332  16.11963  56.97414
      19  13.71149  57.45592         20.54277   1.920000  16.11963  56.97414  11.32233  56.81332  11.30334  57.93771  16.10065  58.09853
      19  13.69250  58.58078         20.55990   1.920000  16.10065  58.09853  11.30334  57.93771  11.28434  59.06303  16.08165  59.22385
      19  13.67349  59.70657         20.57704   1.920000  16.08165  59.22385  11.28434  59.06303  11.26533  60.18930  16.06263  60.35012
      19  13.65446  60.83331         20.59419   1.920000  16.06263  60.35012  11.26533  60.18930  11.24629  61.31650  16.04360  61.47732
      19  13.63542  61.96098         20.61136   1.920000  16.04360  61.47732  11.24629  61.31650  11.22725  62.44464  16.02455  62.60546
      19  13.61637  63.08959         20.62854   1.920000  16.02455  62.60546  11.22725  62.44464  11.20818  63.57373  16.00549  63.73454
      19  13.59729  64.21915         20.64574   1.920000  16.00549  63.73454  11.20818  63.57373  11.18910  64.70375  15.98641  64.86457
      19  13.57821  65.34964         20.66295   1.920000  15.98641  64.86457  11.18910  64.70375  11.17001  65.83472  15.96731  65.99554
      19  13.55910  66.48108         20.68018   1.920000  15.96731  65.99554  11.17001  65.83472  11.15089  66.96663  15.94820  67.12745
      19  13.53998  67.61346         20.69742   1.920000  15.94820  67.12745  11.15089  66.96663  11.13177  68.09948  15.92907  68.26030
      19  13.52085  68.74679         20.71468   1.920000  15.92907  68.26030  11.13177  68.09948  11.11262  69.23328  15.90993  69.39410
      19  13.50170  69.88106         20.73194   1.920000  15.90993  69.39410  11.11262  69.23328  11.09346  70.36802  15.89077  70.52884
      19  13.48253  71.01627         20.74923   1.920000  15.89077  70.52884  11.09346  70.36802  11.07429  71.50371  15.87159  71.66453
      19  13.46334  72.15244         20.76653   1.920000  15.87159  71.66453  11.07429  71.50371  11.05510  72.64034  15.85240  72.80116
      19  13.44414  73.28954         20.78384   1.920000  15.85240  72.80116  11.05510  72.64034  11.03589  73.77793  15.83319  73.93875
      19  13.42493  74.42760         20.80117   1.920000  15.83319  73.93875  11.03589  73.77793  11.01666  74.91646  15.81397  75.07728
      19  13.40570  75.56661         20.81851   1.920000  15.81397  75.07728  11.01666  74.91646  10.99743  76.05594  15.79473  76.21676
      19  13.38645  76.70656         20.83586   1.920000  15.79473  76.21676  10.99743  76.05594  10.97817  77.19637  15.77547  77.35719
      19  13.36719  77.84747         20.85323   1.920000  15.77547  77.35719  10.97817  77.19637  10.95890  78.33775  15.75620  78.49857
      19  13.34791  78.98933         20.87062   1.920000  15.75620  78.49857  10.95890  78.33775  10.93961  79.48008  15.73691  79.64090
      19  13.32861  80.13213         20.88802   1.920000  15.73691  79.64090  10.93961  79.48008  10.92031  80.62337  15.71761  80.78419
      19  13.30930  81.27590         20.90543   1.920000  15.71761  80.78419  10.92031  80.62337  10.90099  81.76761  15.69829  81.92843
      19  13.28997  82.42061         20.92286   1.920000  15.69829  81.92843  10.90099  81.76761  10.88165  82.91280  15.67895  83.07362
      19  13.27063  83.56628         20.94030   1.920000  15.67895  83.07362  10.88165  82.91280  10.86230  84.05895  15.65960  84.21976
      19  13.25127  84.71291         20.95776   1.920000  15.65960  84.21976  10.86230  84.05895  10.84293  85.20605  15.64023  85.36687
      19  13.23189  85.86049         20.97523   1.920000  15.64023  85.36687  10.84293  85.20605  10.82354  86.35411  15.62085  86.51493
      19  13.21250  87.00902         20.99272   1.920000  15.62085  86.51493  10.82354  86.35411  10.80414  87.50312  15.60145  87.66394
      19  13.19309  88.15852         21.01022   1.920000  15.60145  87.66394  10.80414  87.50312  10.78473  88.65310  15.58203  88.81391
      19  13.17366  89.30897         21.02774   1.920000  15.58203  88.81391  10.78473  88.65310  10.76529  89.80403  15.56260  89.96485
      19  13.15422  90.46038         21.04527   1.920000  15.56260  89.96485  10.76529  89.80403  10.74584  90.95592  15.54315  91.11674
      19  13.13476  91.61276         21.06281   1.920000  15.54315  91.11674  10.74584  90.95592  10.72638  92.10877  15.52368  92.26959
      19  13.11529  92.76609         21.08037   1.920000  15.52368  92.26959  10.72638  92.10877  10.70690  93.26258  15.50420  93.42340
      19  13.09580  93.92038         21.09795   1.920000  15.50420  93.42340  10.70690  93.26258  10.68740  94.41736  15.48470  94.57818
      19  13.07630  95.07564         21.11554   1.920000  15.48470  94.57818  10.68740  94.41736  10.66789  95.57310  15.46519  95.73392
      19  13.05677  96.23186         21.13314   1.920000  15.46519  95.73392  10.66789  95.57310  10.64836  96.72980  15.44566  96.89062
      19  13.03723  97.38904         21.15076   1.920000  15.44566  96.89062  10.64836  96.72980  10.62881  97.88746  15.42611  98.04828
      19  13.01768  98.54719         21.16839   1.920000  15.42611  98.04828  10.62881  97.88746  10.60925  99.04610  15.40655  99.20691
      19  12.99811  99.70630         21.18604   1.920000  15.40655  99.20691  10.60925  99.04610  10.58967 100.20569  15.38697 100.36651
      19  12.97852 100.86638         21.20370   1.920000  15.38697 100.36651  10.58967 100.20569  10.57007 101.36626  15.36738 101.52707
      19  12.95892 102.02743         21.22138   1.920000  15.36738 101.52707  10.57007 101.36626  10.55046 102.52779  15.34776 102.68861
      19  12.93930 103.18945         21.23907   1.920000  15.34776 102.68861  10.55046 102.52779  10.53083 103.69029  15.32814 103.85110
      19  12.91966 104.35243         21.25678   1.920000  15.32814 103.85110  10.53083 103.69029  10.51119 104.85375  15.30849 105.01457
      19  12.90001 105.51638         21.27450   1.920000  15.30849 105.01457  10.51119 104.85375  10.49152 106.01819  15.28883 106.17901
      19  12.88034 106.68131         21.29223   1.920000  15.28883 106.17901  10.49152 106.01819  10.47185 107.18360  15.26915 107.34442
      19  12.86065 107.84720         21.30998   1.920000  15.26915 107.34442  10.47185 107.18360  10.45215 108.34998  15.24946 108.51080
      19  12.84095 109.01407         21.32775   1.920000  15.24946 108.51080  10.45215 108.34998  10.43244 109.51733  15.22975 109.67815
      19  12.82123 110.18191         21.34553   1.920000  15.22975 109.67815  10.43244 109.51733  10.41272 110.68566  15.21002 110.84648
      19  12.80150 111.35072         21.36333   1.920000  15.21002 110.84648  10.41272 110.68566  10.39297 111.85496  15.19028 112.01578
      19  12.78175 112.52051         21.38114   1.920000  15.19028 112.01578  10.39297 111.85496  10.37321 113.02524  15.17052 113.18605
      19  12.76198 113.69127         21.39896   1.920000  15.17052 113.18605  10.37321 113.02524  10.35344 114.19649  15.15074 114.35731
      19  12.74219 114.86301         21.41680   1.920000  15.15074 114.35731  10.35344 114.19649  10.33364 115.36871  15.13095 115.52953
      19  12.72239 116.03572         21.43466   1.920000  15.13095 115.52953  10.33364 115.36871  10.31384 116.54192  15.11114 116.70274
      19  12.70258 117.20942         21.45253   1.920000  15.11114 116.70274  10.31384 116.54192  10.29401 117.71610  15.09132 117.87692
      19  12.68274 118.38409         21.47041   1.920000  15.09132 117.87692  10.29401 117.71610  10.27417 118.89126  15.07147 119.05208
      19  12.66289 119.55974         21.48831   1.920000  15.07147 119.05208  10.27417 118.89126  10.25431 120.06740  15.05161 120.22822
      19  12.64302 120.73637         21.50622   1.920000  15.05161 120.22822  10.25431 120.06740  10.23443 121.24452  15.03174 121.40534
      19  12.62314 121.91398         21.52415   1.920000  15.03174 121.40534  10.23443 121.24452  10.21454 122.42263  15.01185 122.58344
      19  12.60324 123.09258         21.54210   1.920000  15.01185 122.58344  10.21454 122.42263  10.19463 123.60171  14.99194 123.76253
      19  12.58332 124.27215         21.56006   1.920000  14.99194 123.76253  10.19463 123.60171  10.17471 124.78178  14.97201 124.94260
      19  12.56339 125.45271         21.57803   1.920000  14.97201 124.94260  10.17471 124.78178  10.15477 125.96283  14.95207 126.12365
      19  12.54344 126.63426         21.59602   1.920000  14.95207 126.12365  10.15477 125.96283  10.13481 127.14487  14.93211 127.30569
      19  12.52347 127.81679         21.61402   1.920000  14.93211 127.30569  10.13481 127.14487  10.11483 128.32789  14.91214 128.48871
      18  22.55388   1.01640         20.85323   3.140000  24.93029   0.63712  20.18742   0.37693  20.17746   1.39568  24.92033   1.65586
      18  22.54392   2.03557         20.87062   3.140000  24.92033   1.65586  20.17746   1.39568  20.16750   2.41527  24.91037   2.67546
      18  22.53395   3.05559         20.88802   3.140000  24.91037   2.67546  20.16750   2.41527  20.15753   3.43572  24.90040   3.69590
      18  22.52398   4.07646         20.90543   3.140000  24.90040   3.69590  20.15753   3.43572  20.14755   4.45701  24.89042   4.71720
      18  22.51399   5.09818         20.92286   3.140000  24.89042   4.71720  20.14755   4.45701  20.13757   5.47916  24.88044   5.73935
      18  22.50400   6.12075         20.94030   3.140000  24.88044   5.73935  20.13757   5.47916  20.12757   6.50216  24.87044   6.76235
      18  22.49400   7.14418         20.95776   3.140000  24.87044   6.76235  20.12757   6.50216  20.11757   7.52601  24.86044   7.78620
      18  22.48400   8.16846         20.97523   3.140000  24.86044   7.78620  20.11757   7.52601  20.10756   8.55072  24.85043   8.81091
      18  22.47398   9.19359         20.99272   3.140000  24.85043   8.81091  20.10756   8.55072  20.09754   9.57628  24.84041   9.83647
      18  22.46396  10.21958         21.01022   3.140000  24.84041   9.83647  20.09754   9.57628  20.08751  10.60270  24.83038  10.86288
      18  22.45392  11.24642         21.02774   3.140000  24.83038  10.86288  20.08751  10.60270  20.07747  11.62997  24.82034  11.89015
      18  22.44388  12.27412         21.04527   3.140000  24.82034  11.89015  20.07747  11.62997  20.06743  12.65810  24.81029  12.91828
      18  22.43383  13.30268         21.06281   3.140000  24.81029  12.91828  20.06743  12.65810  20.05737  13.68708  24.80024  13.94727
      18  22.42378  14.33209         21.08037   3.140000  24.80024  13.94727  20.05737  13.68708  20.04731  14.71692  24.79018  14.97711
      18  22.41371  15.36237         21.09795   3.140000  24.79018  14.97711  20.04731  14.71692  20.03724  15.74762  24.78011  16.00781
      18  22.40363  16.39350         21.11554   3.140000  24.78011  16.00781  20.03724  15.74762  20.02716  16.77918  24.77003  17.03937
      18  22.39355  17.42549         21.13314   3.140000  24.77003  17.03937  20.02716  16.77918  20.01707  17.81160  24.75994  18.07179
      18  22.38346  18.45834         21.15076   3.140000  24.75994  18.07179  20.01707  17.81160  20.00698  18.84489  24.74985  19.10507
      18  22.37336  19.49205         21.16839   3.140000  24.74985  19.10507  20.00698  18.84489  19.99687  19.87903  24.73974  20.13921
      18  22.36325  20.52662         21.18604   3.140000  24.73974  20.13921  19.99687  19.87903  19.98676  20.91403  24.72963  21.17422
      18  22.35314  21.56206         21.20370   3.140000  24.72963  21.17422  19.98676  20.91403  19.97664  21.94990  24.71951  22.21009
      18  22.34301  22.59836         21.22138   3.140000  24.71951  22.21009  19.97664  21.94990  19.96651  22.98663  24.70938  23.24682
      18  22.33288  23.63552         21.23907   3.140000  24.70938  23.24682  19.96651  22.98663  19.95637  24.02423  24.69924  24.28441
      18  22.32273  24.67355         21.25678   3.140000  24.69924  24.28441  19.95637  24.02423  19.94623  25.06269  24.68910  25.32287
      18  22.31258  25.71244         21.27450   3.140000  24.68910  25.32287  19.94623  25.06269  19.93607  26.10202  24.67894  26.36220
      18  22.30243  26.75220         21.29223   3.140000  24.67894  26.36220  19.93607  26.10202  19.92591  27.14221  24.66878  27.40239
      18  22.29226  27.79283         21.30998   3.140000  24.66878  27.40239  19.92591  27.14221  19.91574  28.18327  24.65861  28.44345
      18  22.28208  28.83433         21.32775   3.140000  24.65861  28.44345  19.91574  28.18327  19.90556  29.22520  24.64843  29.48538
      18  22.27190  29.87669         21.34553   3.140000  24.64843  29.48538  19.90556  29.22520  19.89537  30.26799  24.63824  30.52818
      18  22.26170  30.91992         21.36333   3.140000  24.63824  30.52818  19.89537  30.26799  19.88517  31.31166  24.62804  31.57184
      18  22.25150  31.96402         21.38114   3.140000  24.62804  31.57184  19.88517  31.31166  19.87497  32.35620  24.61784  32.61638
      18  22.24129  33.00899         21.39896   3.140000  24.61784  32.61638  19.87497  32.35620  19.86475  33.40160  24.60762  33.66179
      18  22.23108  34.05483         21.41680   3.140000  24.60762  33.66179  19.86475  33.40160  19.85453  34.44788  24.59740  34.70807
      18  22.22085  35.10155         21.43466   3.140000  24.59740  34.70807  19.85453  34.44788  19.84430  35.49503  24.58717  35.75522
      18  22.21061  36.14914         21.45253   3.140000  24.58717  35.75522  19.84430  35.49503  19.83406  36.54306  24.57693  36.80324
      18  22.20037  37.19760         21.47041   3.140000  24.57693  36.80324  19.83406  36.54306  19.82381  37.59195  24.56668  37.85214
      18  22.19012  38.24693         21.48831   3.140000  24.56668  37.85214  19.82381  37.59195  19.81355  38.64173  24.55642  38.90191
      18  22.17986  39.29714         21.50622   3.140000  24.55642  38.90191  19.81355  38.64173  19.80329  39.69237  24.54616  39.95256
      18  22.16959  40.34823         21.52415   3.140000  24.54616  39.95256  19.80329  39.69237  19.79301  40.74390  24.53588  41.00408
      18  22.15931  41.40019         21.54210   3.140000  24.53588  41.00408  19.79301  40.74390  19.78273  41.79630  24.52560  42.05648
      18  22.14902  42.45303         21.56006   3.140000  24.52560  42.05648  19.78273  41.79630  19.77244  42.84957  24.51531  43.10976
      18  22.13873  43.50674         21.57803   3.140000  24.51531  43.10976  19.77244  42.84957  19.76214  43.90373  24.50501  44.16391
      18  22.12842  44.56134         21.59602   3.140000  24.50501  44.16391  19.76214  43.90373  19.75183  44.95876  24.49470  45.21895
      18  22.11811  45.61681         21.61402   3.140000  24.49470  45.21895  19.75183  44.95876  19.74152  46.01468  24.48439  46.27486
      18  22.10779  46.67317         21.63204   3.140000  24.48439  46.27486  19.74152  46.01468  19.73119  47.07147  24.47406  47.33166
      18  22.09746  47.73040         21.65008   3.140000  24.47406  47.33166  19.73119  47.07147  19.72086  48.12915  24.46373  48.38933
      18  22.08712  48.78852         21.66813   3.140000  24.46373  48.38933  19.72086  48.12915  19.71052  49.18770  24.45338  49.44789
      18  22.07677  49.84752         21.68619   3.140000  24.45338  49.44789  19.71052  49.18770  19.70016  50.24714  24.44303  50.50733
      18  22.06642  50.90740         21.70427   3.140000  24.44303  50.50733  19.70016  50.24714  19.68980  51.30747  24.43267  51.56765
      18  22.05605  51.96816         21.72237   3.140000  24.43267  51.56765  19.68980  51.30747  19.67944  52.36867  24.42230  52.62886
      18  22.04568  53.02981         21.74047   3.140000  24.42230  52.62886  19.67944  52.36867  19.66906  53.43076  24.41193  53.69095
      18  22.03530  54.09234         21.75860   3.140000  24.41193  53.69095  19.66906  53.43076  19.65867  54.49374  24.40154  54.75393
      18  22.02491  55.15576         21.77674   3.140000  24.40154  54.75393  19.65867  54.49374  19.64828  55.55760  24.39115  55.81779
      18  22.01451  56.22007         21.79489   3.140000  24.39115  55.81779  19.64828  55.55760  19.63788  56.62235  24.38074  56.88254
      18  22.00410  57.28527         21.81306   3.140000  24.38074  56.88254  19.63788  56.62235  19.62746  57.68799  24.37033  57.94818
      18  21.99369  58.35135         21.83125   3.140000  24.37033  57.94818  19.62746  57.68799  19.61704  58.75452  24.35991  59.01470
      18  21.98326  59.41832         21.84945   3.140000  24.35991  59.01470  19.61704  58.75452  19.60661  59.82193  24.34948  60.08212
      18  21.97283  60.48618         21.86766   3.140000  24.34948  60.08212  19.60661  59.82193  19.59618  60.89024  24.33905  61.15042
      18  21.96239  61.55493         21.88590   3.140000  24.33905  61.15042  19.59618  60.89024  19.58573  61.95943  24.32860  62.21962
      18  21.95194  62.62457         21.90414   3.140000  24.32860  62.21962  19.58573  61.95943  19.57527  63.02952  24.31814  63.28971
      18  21.94148  63.69510         21.92240   3.140000  24.31814  63.28971  19.57527  63.02952  19.56481  64.10050  24.30768  64.36069
      18  21.93101  64.76653         21.94068   3.140000  24.30768  64.36069  19.56481  64.10050  19.55434  65.17237  24.29721  65.43256
      18  21.92053  65.83885         21.95897   3.140000  24.29721  65.43256  19.55434  65.17237  19.54386  66.24514  24.28673  66.50532
      18  21.91005  66.91206         21.97728   3.140000  24.28673  66.50532  19.54386  66.24514  19.53337  67.31880  24.27624  67.57898
      18  21.89955  67.98617         21.99560   3.140000  24.27624  67.57898  19.53337  67.31880  19.52287  68.39335  24.26574  68.65354
      18  21.88905  69.06117         22.01394   3.140000  24.26574  68.65354  19.52287  68.39335  19.51236  69.46881  24.25523  69.72899
      18  21.87854  70.13707         22.03229   3.140000  24.25523  69.72899  19.51236  69.46881  19.50184  70.54515  24.24471  70.80534
      18  21.86802  71.21387         22.05066   3.140000  24.24471  70.80534  19.50184  70.54515  19.49132  71.62240  24.23419  71.88258
      18  21.85749  72.29156         22.06904   3.140000  24.23419  71.88258  19.49132  71.62240  19.48078  72.70054  24.22365  72.96073
      18  21.84695  73.37016         22.08744   3.140000  24.22365  72.96073  19.48078  72.70054  19.47024  73.77958  24.21311  74.03977
      18  21.83640  74.44965         22.10585   3.140000  24.21311  74.03977  19.47024  73.77958  19.45969  74.85953  24.20256  75.11971
      18  21.82584  75.53004         22.12428   3.140000  24.20256  75.11971  19.45969  74.85953  19.44913  75.94037  24.19200  76.20055
      18  21.81528  76.61133         22.14273   3.140000  24.19200  76.20055  19.44913  75.94037  19.43856  77.02211  24.18143  77.28230
      18  21.80471  77.69353         22.16119   3.140000  24.18143  77.28230  19.43856  77.02211  19.42798  78.10476  24.17085  78.36494
      18  21.79412  78.77662         22.17966   3.140000  24.17085  78.36494  19.42798  78.10476  19.41740  79.18830  24.16027  79.44849
      18  21.78353  79.86062         22.19815   3.140000  24.16027  79.44849  19.41740  79.18830  19.40680  80.27276  24.14967  80.53294
      18  21.77293  80.94553         22.21666   3.140000  24.14967  80.53294  19.40680  80.27276  19.39620  81.35811  24.13907  81.61830
      18  21.76232  82.03133         22.23518   3.140000  24.13907  81.61830  19.39620  81.35811  19.38558  82.44437  24.12845  82.70456
      18  21.75171  83.11805         22.25372   3.140000  24.12845  82.70456  19.38558  82.44437  19.37496  83.53154  24.11783  83.79172
      18  21.74108  84.20566         22.27227   3.140000  24.11783  83.79172  19.37496  83.53154  19.36433  84.61961  24.10720  84.87979
      18  21.73044  85.29419         22.29084   3.140000  24.10720  84.87979  19.36433  84.61961  19.35369  85.70859  24.09656  85.96877
      18  21.71980  86.38362         22.30942   3.140000  24.09656  85.96877  19.35369  85.70859  19.34304  86.79847  24.08591  87.05866
      18  21.70915  87.47396         22.32802   3.140000  24.08591  87.05866  19.34304  86.79847  19.33238  87.88927  24.07525  88.14945
      18  21.69849  88.56521         22.34663   3.140000  24.07525  88.14945  19.33238  87.88927  19.32172  88.98097  24.06459  89.24116
      18  21.68781  89.65737         22.36526   3.140000  24.06459  89.24116  19.32172  88.98097  19.31104  90.07359  24.05391  90.33378
      18  21.67713  90.75045         22.38391   3.140000  24.05391  90.33378  19.31104  90.07359  19.30036  91.16712  24.04323  91.42730
      18  21.66645  91.84443         22.40257   3.140000  24.04323  91.42730  19.30036  91.16712  19.28967  92.26155  24.03253  92.52174
      18  21.65575  92.93932         22.42125   3.140000  24.03253  92.52174  19.28967  92.26155  19.27896  93.35690  24.02183  93.61709
      18  21.64504  94.03513         22.43994   3.140000  24.02183  93.61709  19.27896  93.35690  19.26825  94.45317  24.01112  94.71335
      18  21.63433  95.13185         22.45865   3.140000  24.01112  94.71335  19.26825  94.45317  19.25753  95.55034  24.00040  95.81053
      18  21.62360  96.22948         22.47737   3.140000  24.00040  95.81053  19.25753  95.55034  19.24680  96.64844  23.98967  96.90862
      18  21.61287  97.32803         22.49611   3.140000  23.98967  96.90862  19.24680  96.64844  19.23607  97.74744  23.97893  98.00763
      18  21.60213  98.42750         22.51486   3.140000  23.97893  98.00763  19.23607  97.74744  19.22532  98.84737  23.96819  99.10755
      18  21.59138  99.52788         22.53363   3.140000  23.96819  99.10755  19.22532  98.84737  19.21456  99.94821  23.95743 100.20839
      18  21.58062 100.62918         22.55242   3.140000  23.95743 100.20839  19.21456  99.94821  19.20380 101.04997  23.94667 101.31015
      18  21.56985 101.73140         22.57122   3.140000  23.94667 101.31015  19.20380 101.04997  19.19302 102.15264  23.93589 102.41283
      18  21.55907 102.83454         22.59004   3.140000  23.93589 102.41283  19.19302 102.15264  19.18224 103.25624  23.92511 103.51643
      18  21.54828 103.93859         22.60887   3.140000  23.92511 103.51643  19.18224 103.25624  19.17145 104.36076  23.91432 104.62094
      18  21.53748 105.04357         22.62772   3.140000  23.91432 104.62094  19.17145 104.36076  19.16065 105.46619  23.90352 105.72638
      18  21.52668 106.14947         22.64658   3.140000  23.90352 105.72638  19.16065 105.46619  19.14984 106.57255  23.89271 106.83274
      18  21.51587 107.25629         22.66546   3.140000  23.89271 106.83274  19.14984 106.57255  19.13902 107.67983  23.88189 107.94002
      18  21.50504 108.36403         22.68436   3.140000  23.88189 107.94002  19.13902 107.67983  19.12819 108.78804  23.87106 109.04822
      18  21.49421 109.47270         22.70327   3.140000  23.87106 109.04822  19.12819 108.78804  19.11736 109.89717  23.86023 110.15735
      18  21.48337 110.58229         22.72220   3.140000  23.86023 110.15735  19.11736 109.89717  19.10651 111.00722  23.84938 111.26741
      18  21.47252 111.69280         22.74114   3.140000  23.84938 111.26741  19.10651 111.00722  19.09566 112.11820  23.83853 112.37838
      18  21.46166 112.80424         22.76010   3.140000  23.83853 112.37838  19.09566 112.11820  19.08479 113.23010  23.82766 113.49029
      18  21.45079 113.91661         22.77908   3.140000  23.82766 113.49029  19.08479 113.23010  19.07392 114.34294  23.81679 114.60312
      18  21.43991 115.02991         22.79807   3.140000  23.81679 114.60312  19.07392 114.34294  19.06304 115.45669  23.80591 115.71688
      18  21.42903 116.14413         22.81707   3.140000  23.80591 115.71688  19.06304 115.45669  19.05215 116.57138  23.79502 116.83157
      18  21.41813 117.25928         22.83609   3.140000  23.79502 116.83157  19.05215 116.57138  19.04125 117.68700  23.78412 117.94719
      18  21.40723 118.37537         22.85513   3.140000  23.78412 117.94719  19.04125 117.68700  19.03034 118.80355  23.77321 119.06373
      18  21.39631 119.49238         22.87419   3.140000  23.77321 119.06373  19.03034 118.80355  19.01942 119.92103  23.76229 120.18121
      18  21.38539 120.61032         22.89326   3.140000  23.76229 120.18121  19.01942 119.92103  19.00849 121.03944  23.75136 121.29962
      18  21.37446 121.72920         22.91234   3.140000  23.75136 121.29962  19.00849 121.03944  18.99756 122.15878  23.74043 122.41896
      18  21.36352 122.84901         22.93144   3.140000  23.74043 122.41896  18.99756 122.15878  18.98661 123.27905  23.72948 123.53924
      18  21.35257 123.96975         22.95056   3.140000  23.72948 123.53924  18.98661 123.27905  18.97566 124.40026  23.71852 124.66045
      18  21.34161 125.09143         22.96969   3.140000  23.71852 124.66045  18.97566 124.40026  18.96469 125.52241  23.70756 125.78259
      18  21.33064 126.21404         22.98884   3.140000  23.70756 125.78259  18.96469 125.52241  18.95372 126.64549  23.69659 126.90567
      18  21.31966 127.33759         23.00801   3.140000  23.69659 126.90567  18.95372 126.64549  18.94274 127.76950  23.68561 128.02969
      17  31.18154   0.93830         22.06904   4.470000  33.52542   0.60896  28.83972   0.24266  28.83765   1.26764  33.52335   1.63394
      17  31.17946   1.96370         22.08744   4.470000  33.52335   1.63394  28.83765   1.26764  28.83557   2.29347  33.52128   2.65977
      17  31.17739   2.98996         22.10585   4.470000  33.52128   2.65977  28.83557   2.29347  28.83350   3.32015  33.51920   3.68646
      17  31.17531   4.01707         22.12428   4.470000  33.51920   3.68646  28.83350   3.32015  28.83142   4.34769  33.51712   4.71400
      17  31.17323   5.04504         22.14273   4.470000  33.51712   4.71400  28.83142   4.34769  28.82934   5.37609  33.51504   5.74240
      17  31.17115   6.07387         22.16119   4.470000  33.51504   5.74240  28.82934   5.37609  28.82726   6.40535  33.51296   6.77165
      17  31.16907   7.10356         22.17966   4.470000  33.51296   6.77165  28.82726   6.40535  28.82517   7.43546  33.51088   7.80176
      17  31.16698   8.13410         22.19815   4.470000  33.51088   7.80176  28.82517   7.43546  28.82309   8.46643  33.50879   8.83274
      17  31.16490   9.16550         22.21666   4.470000  33.50879   8.83274  28.82309   8.46643  28.82100   9.49826  33.50671   9.86457
      17  31.16281  10.19776         22.23518   4.470000  33.50671   9.86457  28.82100   9.49826  28.81891  10.53096  33.50462  10.89726
      17  31.16072  11.23089         22.25372   4.470000  33.50462  10.89726  28.81891  10.53096  28.81682  11.56451  33.50253  11.93081
      17  31.15863  12.26487         22.27227   4.470000  33.50253  11.93081  28.81682  11.56451  28.81473  12.59892  33.50043  12.96523
      17  31.15654  13.29972         22.29084   4.470000  33.50043  12.96523  28.81473  12.59892  28.81264  13.63420  33.49834  14.00051
      17  31.15444  14.33542         22.30942   4.470000  33.49834  14.00051  28.81264  13.63420  28.81054  14.67034  33.49625  15.03665
      17  31.15234  15.37200         22.32802   4.470000  33.49625  15.03665  28.81054  14.67034  28.80844  15.70735  33.49415  16.07365
      17  31.15025  16.40943         22.34663   4.470000  33.49415  16.07365  28.80844  15.70735  28.80634  16.74521  33.49205  17.11152
      17  31.14815  17.44773         22.36526   4.470000  33.49205  17.11152  28.80634  16.74521  28.80424  17.78395  33.48995  18.15025
      17  31.14604  18.48690         22.38391   4.470000  33.48995  18.15025  28.80424  17.78395  28.80214  18.82355  33.48785  19.18985
      17  31.14394  19.52693         22.40257   4.470000  33.48785  19.18985  28.80214  18.82355  28.80004  19.86401  33.48574  20.23032
      17  31.14184  20.56783         22.42125   4.470000  33.48574  20.23032  28.80004  19.86401  28.79793  20.90535  33.48363  21.27165
      17  31.13973  21.60960         22.43994   4.470000  33.48363  21.27165  28.79793  20.90535  28.79582  21.94755  33.48153  22.31385
      17  31.13762  22.65224         22.45865   4.470000  33.48153  22.31385  28.79582  21.94755  28.79371  22.99062  33.47942  23.35692
      17  31.13551  23.69574         22.47737   4.470000  33.47942  23.35692  28.79371  22.99062  28.79160  24.03456  33.47731  24.40086
      17  31.13340  24.74012         22.49611   4.470000  33.47731  24.40086  28.79160  24.03456  28.78949  25.07937  33.47519  25.44568
      17  31.13128  25.78536         22.51486   4.470000  33.47519  25.44568  28.78949  25.07937  28.78737  26.12505  33.47308  26.49136
      17  31.12917  26.83148         22.53363   4.470000  33.47308  26.49136  28.78737  26.12505  28.78526  27.17161  33.47096  27.53791
      17  31.12705  27.87847         22.55242   4.470000  33.47096  27.53791  28.78526  27.17161  28.78314  28.21903  33.46884  28.58534
      17  31.12493  28.92633         22.57122   4.470000  33.46884  28.58534  28.78314  28.21903  28.78102  29.26733  33.46672  29.63364
      17  31.12281  29.97507         22.59004   4.470000  33.46672  29.63364  28.78102  29.26733  28.77890  30.31650  33.46460  30.68281
      17  31.12069  31.02468         22.60887   4.470000  33.46460  30.68281  28.77890  30.31650  28.77677  31.36655  33.46248  31.73286
      17  31.11856  32.07517         22.62772   4.470000  33.46248  31.73286  28.77677  31.36655  28.77465  32.41747  33.46035  32.78378
      17  31.11644  33.12653         22.64658   4.470000  33.46035  32.78378  28.77465  32.41747  28.77252  33.46927  33.45822  33.83558
      17  31.11431  34.17876         22.66546   4.470000  33.45822  33.83558  28.77252  33.46927  28.77039  34.52195  33.45610  34.88825
      17  31.11218  35.23188         22.68436   4.470000  33.45610  34.88825  28.77039  34.52195  28.76826  35.57550  33.45396  35.94181
      17  31.11005  36.28587         22.70327   4.470000  33.45396  35.94181  28.76826  35.57550  28.76613  36.62994  33.45183  36.99624
      17  31.10791  37.34074         22.72220   4.470000  33.45183  36.99624  28.76613  36.62994  28.76399  37.68525  33.44970  38.05155
      17  31.10578  38.39649         22.74114   4.470000  33.44970  38.05155  28.76399  37.68525  28.76186  38.74144  33.44756  39.10774
      17  31.10364  39.45313         22.76010   4.470000  33.44756  39.10774  28.76186  38.74144  28.75972  39.79851  33.44542  40.16481
      17  31.10150  40.51064         22.77908   4.470000  33.44542  40.16481  28.75972  39.79851  28.75758  40.85646  33.44328  41.22277
      17  31.09936  41.56903         22.79807   4.470000  33.44328  41.22277  28.75758  40.85646  28.75544  41.91530  33.44114  42.28160
      17  31.09722  42.62831         22.81707   4.470000  33.44114  42.28160  28.75544  41.91530  28.75330  42.97501  33.43900  43.34132
      17  31.09508  43.68847         22.83609   4.470000  33.43900  43.34132  28.75330  42.97501  28.75115  44.03561  33.43685  44.40192
      17  31.09293  44.74951         22.85513   4.470000  33.43685  44.40192  28.75115  44.03561  28.74900  45.09710  33.43471  45.46340
      17  31.09078  45.81144         22.87419   4.470000  33.43471  45.46340  28.74900  45.09710  28.74686  46.15947  33.43256  46.52577
      17  31.08863  46.87425         22.89326   4.470000  33.43256  46.52577  28.74686  46.15947  28.74470  47.22272  33.43041  47.58903
      17  31.08648  47.93795         22.91234   4.470000  33.43041  47.58903  28.74470  47.22272  28.74255  48.28687  33.42826  48.65317
      17  31.08433  49.00253         22.93144   4.470000  33.42826  48.65317  28.74255  48.28687  28.74040  49.35190  33.42610  49.71820
      17  31.08217  50.06801         22.95056   4.470000  33.42610  49.71820  28.74040  49.35190  28.73824  50.41781  33.42395  50.78412
      17  31.08002  51.13437         22.96969   4.470000  33.42395  50.78412  28.73824  50.41781  28.73609  51.48462  33.42179  51.85092
      17  31.07786  52.20162         22.98884   4.470000  33.42179  51.85092  28.73609  51.48462  28.73393  52.55231  33.41963  52.91862
      17  31.07570  53.26976         23.00801   4.470000  33.41963  52.91862  28.73393  52.55231  28.73176  53.62090  33.41747  53.98720
      17  31.07354  54.33879         23.02719   4.470000  33.41747  53.98720  28.73176  53.62090  28.72960  54.69037  33.41531  55.05668
      17  31.07137  55.40871         23.04639   4.470000  33.41531  55.05668  28.72960  54.69037  28.72744  55.76074  33.41314  56.12705
      17  31.06921  56.47952         23.06560   4.470000  33.41314  56.12705  28.72744  55.76074  28.72527  56.83200  33.41097  57.19831
      17  31.06704  57.55123         23.08483   4.470000  33.41097  57.19831  28.72527  56.83200  28.72310  57.90415  33.40881  58.27046
      17  31.06487  58.62383         23.10408   4.470000  33.40881  58.27046  28.72310  57.90415  28.72093  58.97720  33.40664  59.34351
      17  31.06270  59.69732         23.12334   4.470000  33.40664  59.34351  28.72093  58.97720  28.71876  60.05114  33.40446  60.41745
      17  31.06052  60.77171         23.14262   4.470000  33.40446  60.41745  28.71876  60.05114  28.71659  61.12598  33.40229  61.49228
      17  31.05835  61.84700         23.16191   4.470000  33.40229  61.49228  28.71659  61.12598  28.71441  62.20171  33.40011  62.56802
      17  31.05617  62.92318         23.18122   4.470000  33.40011  62.56802  28.71441  62.20171  28.71223  63.27834  33.39794  63.64465
      17  31.05400  64.00026         23.20054   4.470000  33.39794  63.64465  28.71223  63.27834  28.71005  64.35587  33.39576  64.72217
      17  31.05181  65.07823         23.21989   4.470000  33.39576  64.72217  28.71005  64.35587  28.70787  65.43429  33.39358  65.80060
      17  31.04963  66.15711         23.23924   4.470000  33.39358  65.80060  28.70787  65.43429  28.70569  66.51362  33.39139  66.87992
      17  31.04745  67.23688         23.25862   4.470000  33.39139  66.87992  28.70569  66.51362  28.70350  67.59384  33.38921  67.96015
      17  31.04526  68.31756         23.27801   4.470000  33.38921  67.96015  28.70350  67.59384  28.70132  68.67497  33.38702  69.04127
      17  31.04308  69.39913         23.29741   4.470000  33.38702  69.04127  28.70132  68.67497  28.69913  69.75699  33.38483  70.12330
      17  31.04089  70.48161         23.31684   4.470000  33.38483  70.12330  28.69913  69.75699  28.69694  70.83992  33.38264  71.20623
      17  31.03870  71.56499         23.33628   4.470000  33.38264  71.20623  28.69694  70.83992  28.69475  71.92375  33.38045  72.29006
      17  31.03650  72.64927         23.35573   4.470000  33.38045  72.29006  28.69475  71.92375  28.69255  73.00849  33.37826  73.37479
      17  31.03431  73.73446         23.37520   4.470000  33.37826  73.37479  28.69255  73.00849  28.69036  74.09412  33.37606  74.46043
      17  31.03211  74.82055         23.39469   4.470000  33.37606  74.46043  28.69036  74.09412  28.68816  75.18067  33.37386  75.54697
      17  31.02991  75.90755         23.41419   4.470000  33.37386  75.54697  28.68816  75.18067  28.68596  76.26812  33.37167  76.63442
      17  31.02771  76.99545         23.43371   4.470000  33.37167  76.63442  28.68596  76.26812  28.68376  77.35647  33.36946  77.72278
      17  31.02551  78.08426         23.45325   4.470000  33.36946  77.72278  28.68376  77.35647  28.68156  78.44574  33.36726  78.81204
      17  31.02331  79.17398         23.47280   4.470000  33.36726  78.81204  28.68156  78.44574  28.67935  79.53591  33.36506  79.90221
      17  31.02110  80.26460         23.49237   4.470000  33.36506  79.90221  28.67935  79.53591  28.67715  80.62699  33.36285  80.99329
      17  31.01889  81.35614         23.51196   4.470000  33.36285  80.99329  28.67715  80.62699  28.67494  81.71898  33.36064  82.08529
      17  31.01668  82.44858         23.53156   4.470000  33.36064  82.08529  28.67494  81.71898  28.67273  82.81188  33.35843  83.17819
      17  31.01447  83.54194         23.55118   4.470000  33.35843  83.17819  28.67273  82.81188  28.67051  83.90569  33.35622  84.27200
      17  31.01226  84.63621         23.57081   4.470000  33.35622  84.27200  28.67051  83.90569  28.66830  85.00042  33.35400  85.36672
      17  31.01004  85.73139         23.59046   4.470000  33.35400  85.36672  28.66830  85.00042  28.66608  86.09605  33.35179  86.46236
      17  31.00783  86.82748         23.61013   4.470000  33.35179  86.46236  28.66608  86.09605  28.66387  87.19260  33.34957  87.55891
      17  31.00561  87.92449         23.62981   4.470000  33.34957  87.55891  28.66387  87.19260  28.66165  88.29007  33.34735  88.65637
      17  31.00339  89.02241         23.64951   4.470000  33.34735  88.65637  28.66165  88.29007  28.65943  89.38844  33.34513  89.75475
      17  31.00117  90.12124         23.66923   4.470000  33.34513  89.75475  28.65943  89.38844  28.65720  90.48774  33.34291  90.85404
      17  30.99894  91.22100         23.68896   4.470000  33.34291  90.85404  28.65720  90.48774  28.65498  91.58795  33.34068  91.95425
      17  30.99672  92.32167         23.70871   4.470000  33.34068  91.95425  28.65498  91.58795  28.65275  92.68908  33.33845  93.05538
      17  30.99449  93.42325         23.72847   4.470000  33.33845  93.05538  28.65275  92.68908  28.65052  93.79112  33.33623  94.15743
      17  30.99226  94.52576         23.74826   4.470000  33.33623  94.15743  28.65052  93.79112  28.64829  94.89409  33.33399  95.26039
      17  30.99003  95.62918         23.76805   4.470000  33.33399  95.26039  28.64829  94.89409  28.64606  95.99797  33.33176  96.36428
      17  30.98779  96.73353         23.78787   4.470000  33.33176  96.36428  28.64606  95.99797  28.64382  97.10278  33.32953  97.46908
      17  30.98556  97.83879         23.80770   4.470000  33.32953  97.46908  28.64382  97.10278  28.64159  98.20850  33.32729  98.57481
      17  30.98332  98.94498         23.82755   4.470000  33.32729  98.57481  28.64159  98.20850  28.63935  99.31515  33.32505  99.68145
      17  30.98108 100.05209         23.84741   4.470000  33.32505  99.68145  28.63935  99.31515  28.63711 100.42272  33.32281 100.78902
      17  30.97884 101.16012         23.86729   4.470000  33.32281 100.78902  28.63711 100.42272  28.63487 101.53121  33.32057 101.89752
      17  30.97660 102.26907         23.88719   4.470000  33.32057 101.89752  28.63487 101.53121  28.63262 102.64063  33.31833 103.00693
      17  30.97435 103.37895         23.90711   4.470000  33.31833 103.00693  28.63262 102.64063  28.63038 103.75097  33.31608 104.11728
      17  30.97211 104.48976         23.92704   4.470000  33.31608 104.11728  28.63038 103.75097  28.62813 104.86224  33.31383 105.22854
      17  30.96986 105.60149         23.94698   4.470000  33.31383 105.22854  28.62813 104.86224  28.62588 105.97443  33.31158 106.34074
      17  30.96761 106.71415         23.96695   4.470000  33.31158 106.34074  28.62588 105.97443  28.62363 107.08756  33.30933 107.45386
      17  30.96536 107.82773         23.98693   4.470000  33.30933 107.45386  28.62363 107.08756  28.62138 108.20161  33.30708 108.56791
      17  30.96310 108.94225         24.00693   4.470000  33.30708 108.56791  28.62138 108.20161  28.61912 109.31658  33.30483 109.68289
      17  30.96085 110.05769         24.02694   4.470000  33.30483 109.68289  28.61912 109.31658  28.61686 110.43249  33.30257 110.79880
      17  30.95859 111.17406         24.04697   4.470000  33.30257 110.79880  28.61686 110.43249  28.61461 111.54933  33.30031 111.91563
      17  30.95633 112.29137         24.06702   4.470000  33.30031 111.91563  28.61461 111.54933  28.61235 112.66710  33.29805 113.03340
      17  30.95407 113.40960         24.08708   4.470000  33.29805 113.03340  28.61235 112.66710  28.61008 113.78580  33.29579 114.15210
      17  30.95180 114.52877         24.10716   4.470000  33.29579 114.15210  28.61008 113.78580  28.60782 114.90543  33.29352 115.27174
      17  30.94954 115.64887         24.12726   4.470000  33.29352 115.27174  28.60782 114.90543  28.60555 116.02600  33.29126 116.39231
      17  30.94727 116.76990         24.14738   4.470000  33.29126 116.39231  28.60555 116.02600  28.60328 117.14750  33.28899 117.51381
      17  30.94500 117.89187         24.16751   4.470000  33.28899 117.51381  28.60328 117.14750  28.60101 118.26994  33.28672 118.63624
      17  30.94273 119.01478         24.18766   4.470000  33.28672 118.63624  28.60101 118.26994  28.59874 119.39331  33.28445 119.75961
      17  30.94046 120.13862         24.20782   4.470000  33.28445 119.75961  28.59874 119.39331  28.59647 120.51762  33.28217 120.88392
      17  30.93818 121.26339         24.22800   4.470000  33.28217 120.88392  28.59647 120.51762  28.59419 121.64286  33.27990 122.00917
      17  30.93591 122.38911         24.24820   4.470000  33.27990 122.00917  28.59419 121.64286  28.59191 122.76905  33.27762 123.13535
      17  30.93363 123.51576         24.26842   4.470000  33.27762 123.13535  28.59191 122.76905  28.58963 123.89617  33.27534 124.26248
      17  30.93135 124.64335         24.28865   4.470000  33.27534 124.26248  28.58963 123.89617  28.58735 125.02423  33.27306 125.39054
      17  30.92906 125.77189         24.30890   4.470000  33.27306 125.39054  28.58735 125.02423  28.58507 126.15324  33.27077 126.51954
      17  30.92678 126.90136         24.32916   4.470000  33.27077 126.51954  28.58507 126.15324  28.58278 127.28318  33.26849 127.64949
      16  41.10333   0.00461         23.39469   5.590000  43.46402  -0.25918  38.73661  -0.72187  38.74265   0.26839  43.47006   0.73108
      16  41.10938   0.99528         23.41419   5.590000  43.47006   0.73108  38.74265   0.26839  38.74870   1.25948  43.47611   1.72217
      16  41.11543   1.98678         23.43371   5.590000  43.47611   1.72217  38.74870   1.25948  38.75475   2.25139  43.48216   2.71408
      16  41.12149   2.97911         23.45325   5.590000  43.48216   2.71408  38.75475   2.25139  38.76081   3.24413  43.48822   3.70682
      16  41.12755   3.97226         23.47280   5.590000  43.48822   3.70682  38.76081   3.24413  38.76687   4.23770  43.49429   4.70039
      16  41.13361   4.96624         23.49237   5.590000  43.49429   4.70039  38.76687   4.23770  38.77294   5.23209  43.50035   5.69479
      16  41.13969   5.96105         23.51196   5.590000  43.50035   5.69479  38.77294   5.23209  38.77902   6.22732  43.50643   6.69001
      16  41.14576   6.95669         23.53156   5.590000  43.50643   6.69001  38.77902   6.22732  38.78510   7.22337  43.51251   7.68607
      16  41.15184   7.95316         23.55118   5.590000  43.51251   7.68607  38.78510   7.22337  38.79118   8.22026  43.51859   8.68295
      16  41.15793   8.95046         23.57081   5.590000  43.51859   8.68295  38.79118   8.22026  38.79727   9.21798  43.52468   9.68067
      16  41.16402   9.94860         23.59046   5.590000  43.52468   9.68067  38.79727   9.21798  38.80336  10.21652  43.53077  10.67922
      16  41.17012  10.94756         23.61013   5.590000  43.53077  10.67922  38.80336  10.21652  38.80946  11.21590  43.53687  11.67860
      16  41.17622  11.94736         23.62981   5.590000  43.53687  11.67860  38.80946  11.21590  38.81557  12.21612  43.54298  12.67881
      16  41.18233  12.94799         23.64951   5.590000  43.54298  12.67881  38.81557  12.21612  38.82168  13.21717  43.54909  13.67986
      16  41.18844  13.94945         23.66923   5.590000  43.54909  13.67986  38.82168  13.21717  38.82779  14.21905  43.55520  14.68174
      16  41.19456  14.95175         23.68896   5.590000  43.55520  14.68174  38.82779  14.21905  38.83391  15.22177  43.56132  15.68446
      16  41.20068  15.95489         23.70871   5.590000  43.56132  15.68446  38.83391  15.22177  38.84003  16.22532  43.56745  16.68801
      16  41.20681  16.95886         23.72847   5.590000  43.56745  16.68801  38.84003  16.22532  38.84616  17.22971  43.57358  17.69240
      16  41.21294  17.96367         23.74826   5.590000  43.57358  17.69240  38.84616  17.22971  38.85230  18.23494  43.57971  18.69763
      16  41.21907  18.96932         23.76805   5.590000  43.57971  18.69763  38.85230  18.23494  38.85844  19.24100  43.58585  19.70370
      16  41.22522  19.97580         23.78787   5.590000  43.58585  19.70370  38.85844  19.24100  38.86458  20.24791  43.59200  20.71060
      16  41.23137  20.98313         23.80770   5.590000  43.59200  20.71060  38.86458  20.24791  38.87073  21.25565  43.59815  21.71834
      16  41.23752  21.99129         23.82755   5.590000  43.59815  21.71834  38.87073  21.25565  38.87689  22.26423  43.60430  22.72693
      16  41.24368  23.00029         23.84741   5.590000  43.60430  22.72693  38.87689  22.26423  38.88305  23.27366  43.61046  23.73635
      16  41.24984  24.01014         23.86729   5.590000  43.61046  23.73635  38.88305  23.27366  38.88922  24.28392  43.61663  24.74662
      16  41.25601  25.02083         23.88719   5.590000  43.61663  24.74662  38.88922  24.28392  38.89539  25.29503  43.62280  25.75773
      16  41.26218  26.03236         23.90711   5.590000  43.62280  25.75773  38.89539  25.29503  38.90156  26.30698  43.62897  26.76968
      16  41.26836  27.04473         23.92704   5.590000  43.62897  26.76968  38.90156  26.30698  38.90774  27.31978  43.63515  27.78247
      16  41.27454  28.05795         23.94698   5.590000  43.63515  27.78247  38.90774  27.31978  38.91393  28.33342  43.64134  28.79611
      16  41.28073  29.07201         23.96695   5.590000  43.64134  28.79611  38.91393  28.33342  38.92012  29.34790  43.64753  29.81060
      16  41.28693  30.08691         23.98693   5.590000  43.64753  29.81060  38.92012  29.34790  38.92632  30.36323  43.65373  30.82593
      16  41.29312  31.10267         24.00693   5.590000  43.65373  30.82593  38.92632  30.36323  38.93252  31.37941  43.65993  31.84210
      16  41.29933  32.11927         24.02694   5.590000  43.65993  31.84210  38.93252  31.37941  38.93873  32.39643  43.66614  32.85913
      16  41.30554  33.13672         24.04697   5.590000  43.66614  32.85913  38.93873  32.39643  38.94494  33.41431  43.67235  33.87700
      16  41.31175  34.15501         24.06702   5.590000  43.67235  33.87700  38.94494  33.41431  38.95116  34.43303  43.67857  34.89572
      16  41.31797  35.17416         24.08708   5.590000  43.67857  34.89572  38.95116  34.43303  38.95738  35.45259  43.68479  35.91529
      16  41.32420  36.19415         24.10716   5.590000  43.68479  35.91529  38.95738  35.45259  38.96361  36.47301  43.69102  36.93571
      16  41.33043  37.21500         24.12726   5.590000  43.69102  36.93571  38.96361  36.47301  38.96984  37.49428  43.69725  37.95698
      16  41.33666  38.23669         24.14738   5.590000  43.69725  37.95698  38.96984  37.49428  38.97608  38.51641  43.70349  38.97910
      16  41.34290  39.25924         24.16751   5.590000  43.70349  38.97910  38.97608  38.51641  38.98232  39.53938  43.70973  40.00207
      16  41.34915  40.28264         24.18766   5.590000  43.70973  40.00207  38.98232  39.53938  38.98857  40.56321  43.71598  41.02590
      16  41.35540  41.30689         24.20782   5.590000  43.71598  41.02590  38.98857  40.56321  38.99482  41.58789  43.72223  42.05058
      16  41.36166  42.33200         24.22800   5.590000  43.72223  42.05058  38.99482  41.58789  39.00108  42.61342  43.72849  43.07611
      16  41.36792  43.35796         24.24820   5.590000  43.72849  43.07611  39.00108  42.61342  39.00734  43.63981  43.73476  44.10250
      16  41.37418  44.38478         24.26842   5.590000  43.73476  44.10250  39.00734  43.63981  39.01361  44.66706  43.74102  45.12975
      16  41.38046  45.41245         24.28865   5.590000  43.74102  45.12975  39.01361  44.66706  39.01989  45.69516  43.74730  46.15785
      16  41.38673  46.44098         24.30890   5.590000  43.74730  46.15785  39.01989  45.69516  39.02617  46.72412  43.75358  47.18681
      16  41.39302  47.47037         24.32916   5.590000  43.75358  47.18681  39.02617  46.72412  39.03245  47.75393  43.75986  48.21663
      16  41.39930  48.50062         24.34945   5.590000  43.75986  48.21663  39.03245  47.75393  39.03874  48.78461  43.76615  49.24730
      16  41.40560  49.53172         24.36974   5.590000  43.76615  49.24730  39.03874  48.78461  39.04504  49.81614  43.77245  50.27883
      16  41.41189  50.56368         24.39006   5.590000  43.77245  50.27883  39.04504  49.81614  39.05134  50.84854  43.77875  51.31123
      16  41.41820  51.59651         24.41040   5.590000  43.77875  51.31123  39.05134  50.84854  39.05765  51.88179  43.78506  52.34448
      16  41.42451  52.63019         24.43075   5.590000  43.78506  52.34448  39.05765  51.88179  39.06396  52.91591  43.79137  53.37860
      16  41.43082  53.66474         24.45111   5.590000  43.79137  53.37860  39.06396  52.91591  39.07027  53.95088  43.79768  54.41358
      16  41.43714  54.70015         24.47150   5.590000  43.79768  54.41358  39.07027  53.95088  39.07659  54.98673  43.80401  55.44942
      16  41.44346  55.73642         24.49190   5.590000  43.80401  55.44942  39.07659  54.98673  39.08292  56.02343  43.81033  56.48612
      16  41.44979  56.77356         24.51232   5.590000  43.81033  56.48612  39.08292  56.02343  39.08925  57.06100  43.81666  57.52369
      16  41.45613  57.81156         24.53275   5.590000  43.81666  57.52369  39.08925  57.06100  39.09559  58.09943  43.82300  58.56213
      16  41.46247  58.85043         24.55321   5.590000  43.82300  58.56213  39.09559  58.09943  39.10193  59.13873  43.82934  59.60143
      16  41.46881  59.89016         24.57367   5.590000  43.82934  59.60143  39.10193  59.13873  39.10828  60.17890  43.83569  60.64159
      16  41.47516  60.93076         24.59416   5.590000  43.83569  60.64159  39.10828  60.17890  39.11464  61.21993  43.84205  61.68263
      16  41.48152  61.97223         24.61466   5.590000  43.84205  61.68263  39.11464  61.21993  39.12099  62.26183  43.84841  62.72453
      16  41.48788  63.01457         24.63519   5.590000  43.84841  62.72453  39.12099  62.26183  39.12736  63.30460  43.85477  63.76730
      16  41.49425  64.05777         24.65572   5.590000  43.85477  63.76730  39.12736  63.30460  39.13373  64.34824  43.86114  64.81094
      16  41.50062  65.10184         24.67628   5.590000  43.86114  64.81094  39.13373  64.34824  39.14010  65.39275  43.86751  65.85545
      16  41.50700  66.14679         24.69685   5.590000  43.86751  65.85545  39.14010  65.39275  39.14648  66.43813  43.87389  66.90083
      16  41.51338  67.19261         24.71744   5.590000  43.87389  66.90083  39.14648  66.43813  39.15287  67.48438  43.88028  67.94708
      16  41.51977  68.23929         24.73805   5.590000  43.88028  67.94708  39.15287  67.48438  39.15926  68.53151  43.88667  68.99420
      16  41.52616  69.28685         24.75867   5.590000  43.88667  68.99420  39.15926  68.53151  39.16565  69.57950  43.89306  70.04220
      16  41.53256  70.33529         24.77931   5.590000  43.89306  70.04220  39.16565  69.57950  39.17205  70.62838  43.89947  71.09107
      16  41.53896  71.38459         24.79997   5.590000  43.89947  71.09107  39.17205  70.62838  39.17846  71.67812  43.90587  72.14081
      16  41.54537  72.43478         24.82064   5.590000  43.90587  72.14081  39.17846  71.67812  39.18487  72.72874  43.91228  73.19143
      16  41.55179  73.48584         24.84134   5.590000  43.91228  73.19143  39.18487  72.72874  39.19129  73.78024  43.91870  74.24293
      16  41.55821  74.53777         24.86205   5.590000  43.91870  74.24293  39.19129  73.78024  39.19771  74.83261  43.92512  75.29530
      16  41.56463  75.59058         24.88277   5.590000  43.92512  75.29530  39.19771  74.83261  39.20414  75.88586  43.93155  76.34855
      16  41.57106  76.64427         24.90352   5.590000  43.93155  76.34855  39.20414  75.88586  39.21057  76.93999  43.93799  77.40268
      16  41.57750  77.69884         24.92428   5.590000  43.93799  77.40268  39.21057  76.93999  39.21701  77.99499  43.94442  78.45769
      16  41.58394  78.75428         24.94506   5.590000  43.94442  78.45769  39.21701  77.99499  39.22346  79.05088  43.95087  79.51357
      16  41.59039  79.81061         24.96585   5.590000  43.95087  79.51357  39.22346  79.05088  39.22991  80.10765  43.95732  80.57034
      16  41.59684  80.86782         24.98667   5.590000  43.95732  80.57034  39.22991  80.10765  39.23636  81.16529  43.96377  81.62799
      16  41.60330  81.92591         25.00750   5.590000  43.96377  81.62799  39.23636  81.16529  39.24282  82.22382  43.97023  82.68652
      16  41.60976  82.98488         25.02835   5.590000  43.97023  82.68652  39.24282  82.22382  39.24929  83.28324  43.97670  83.74593
      16  41.61623  84.04473         25.04921   5.590000  43.97670  83.74593  39.24929  83.28324  39.25576  84.34353  43.98317  84.80622
      16  41.62270  85.10547         25.07010   5.590000  43.98317  84.80622  39.25576  84.34353  39.26223  85.40471  43.98965  85.86740
      16  41.62918  86.16709         25.09100   5.590000  43.98965  85.86740  39.26223  85.40471  39.26872  86.46677  43.99613  86.92947
      16  41.63567  87.22959         25.11191   5.590000  43.99613  86.92947  39.26872  86.46677  39.27520  87.52972  44.00261  87.99242
      16  41.64216  88.29299         25.13285   5.590000  44.00261  87.99242  39.27520  87.52972  39.28170  88.59356  44.00911  89.05625
      16  41.64865  89.35727         25.15380   5.590000  44.00911  89.05625  39.28170  88.59356  39.28819  89.65828  44.01560  90.12097
      16  41.65515  90.42243         25.17477   5.590000  44.01560  90.12097  39.28819  89.65828  39.29470  90.72389  44.02211  91.18658
      16  41.66166  91.48849         25.19576   5.590000  44.02211  91.18658  39.29470  90.72389  39.30121  91.79039  44.02862  92.25308
      16  41.66817  92.55543         25.21677   5.590000  44.02862  92.25308  39.30121  91.79039  39.30772  92.85777  44.03513  93.32047
      16  41.67469  93.62326         25.23779   5.590000  44.03513  93.32047  39.30772  92.85777  39.31424  93.92605  44.04165  94.38875
      16  41.68121  94.69198         25.25883   5.590000  44.04165  94.38875  39.31424  93.92605  39.32077  94.99522  44.04818  95.45791
      16  41.68774  95.76160         25.27989   5.590000  44.04818  95.45791  39.32077  94.99522  39.32730  96.06528  44.05471  96.52797
      16  41.69427  96.83210         25.30096   5.590000  44.05471  96.52797  39.32730  96.06528  39.33383  97.13623  44.06124  97.59892
      16  41.70081  97.90350         25.32205   5.590000  44.06124  97.59892  39.33383  97.13623  39.34037  98.20807  44.06778  98.67077
      16  41.70735  98.97579         25.34317   5.590000  44.06778  98.67077  39.34037  98.20807  39.34692  99.28081  44.07433  99.74351
      16  41.71390 100.04897         25.36429   5.590000  44.07433  99.74351  39.34692  99.28081  39.35347 100.35444  44.08088 100.81714
      16  41.72046 101.12305         25.38544   5.590000  44.08088 100.81714  39.35347 100.35444  39.36003 101.42897  44.08744 101.89166
      16  41.72702 102.19803         25.40660   5.590000  44.08744 101.89166  39.36003 101.42897  39.36659 102.50439  44.09400 102.96709
      16  41.73358 103.27390         25.42778   5.590000  44.09400 102.96709  39.36659 102.50439  39.37316 103.58071  44.10057 104.04341
      16  41.74015 104.35067         25.44898   5.590000  44.10057 104.04341  39.37316 103.58071  39.37974 104.65793  44.10715 105.12062
      16  41.74673 105.42833         25.47020   5.590000  44.10715 105.12062  39.37974 104.65793  39.38632 105.73604  44.11373 106.19874
      16  41.75331 106.50690         25.49143   5.590000  44.11373 106.19874  39.38632 105.73604  39.39290 106.81506  44.12031 107.27775
      16  41.75990 107.58636         25.51268   5.590000  44.12031 107.27775  39.39290 106.81506  39.39949 107.89497  44.12690 108.35766
      16  41.76650 108.66672         25.53395   5.590000  44.12690 108.35766  39.39949 107.89497  39.40609 108.97578  44.13350 109.43848
      16  41.77309 109.74799         25.55524   5.590000  44.13350 109.43848  39.40609 108.97578  39.41269 110.05750  44.14010 110.52019
      16  41.77970 110.83015         25.57655   5.590000  44.14010 110.52019  39.41269 110.05750  39.41930 111.14012  44.14671 111.60281
      16  41.78631 111.91322         25.59787   5.590000  44.14671 111.60281  39.41930 111.14012  39.42591 112.22363  44.15332 112.68633
      16  41.79292 112.99719         25.61921   5.590000  44.15332 112.68633  39.42591 112.22363  39.43253 113.30806  44.15994 113.77075
      16  41.79955 114.08207         25.64057   5.590000  44.15994 113.77075  39.43253 113.30806  39.43915 114.39338  44.16656 114.85608
      16  41.80617 115.16784         25.66194   5.590000  44.16656 114.85608  39.43915 114.39338  39.44578 115.47961  44.17319 115.94231
      16  41.81280 116.25453         25.68334   5.590000  44.17319 115.94231  39.44578 115.47961  39.45242 116.56675  44.17983 117.02944
      16  41.81944 117.34212         25.70475   5.590000  44.17983 117.02944  39.45242 116.56675  39.45906 117.65479  44.18647 118.11749
      16  41.82608 118.43061         25.72618   5.590000  44.18647 118.11749  39.45906 117.65479  39.46570 118.74374  44.19311 119.20644
      16  41.83273 119.52002         25.74763   5.590000  44.19311 119.20644  39.46570 118.74374  39.47235 119.83360  44.19976 120.29629
      16  41.83939 120.61033         25.76909   5.590000  44.19976 120.29629  39.47235 119.83360  39.47901 120.92437  44.20642 121.38706
      16  41.84605 121.70155         25.79057   5.590000  44.20642 121.38706  39.47901 120.92437  39.48567 122.01604  44.21308 122.47874
      16  41.85271 122.79368         25.81207   5.590000  44.21308 122.47874  39.48567 122.01604  39.49234 123.10863  44.21975 123.57132
      16  41.85938 123.88672         25.83359   5.590000  44.21975 123.57132  39.49234 123.10863  39.49901 124.20213  44.22642 124.66482
      16  41.86606 124.98068         25.85513   5.590000  44.22642 124.66482  39.49901 124.20213  39.50569 125.29653  44.23310 125.75923
      16  41.87274 126.07554         25.87669   5.590000  44.23310 125.75923  39.50569 125.29653  39.51238 126.39185  44.23979 126.85455
      16  41.87943 127.17132         25.89826   5.590000  44.23979 126.85455  39.51238 126.39185  39.51907 127.48809  44.24648 127.95078
      15  52.12351   0.61712         24.94506   6.820000  54.49904   0.40350  49.73301  -0.16650  49.74798   0.83073  54.51401   1.40073
      15  52.13849   1.61476         24.96585   6.820000  54.51401   1.40073  49.74798   0.83073  49.76296   1.82879  54.52900   2.39879
      15  52.15348   2.61324         24.98667   6.820000  54.52900   2.39879  49.76296   1.82879  49.77796   2.82769  54.54399   3.39769
      15  52.16848   3.61255         25.00750   6.820000  54.54399   3.39769  49.77796   2.82769  49.79296   3.82741  54.55900   4.39742
      15  52.18349   4.61270         25.02835   6.820000  54.55900   4.39742  49.79296   3.82741  49.80798   4.82797  54.57402   5.39798
      15  52.19852   5.61367         25.04921   6.820000  54.57402   5.39798  49.80798   4.82797  49.82302   5.82937  54.58905   6.39937
      15  52.21356   6.61549         25.07010   6.820000  54.58905   6.39937  49.82302   5.82937  49.83806   6.83160  54.60410   7.40160
      15  52.22861   7.61813         25.09100   6.820000  54.60410   7.40160  49.83806   6.83160  49.85312   7.83466  54.61916   8.40467
      15  52.24367   8.62162         25.11191   6.820000  54.61916   8.40467  49.85312   7.83466  49.86819   8.83857  54.63423   9.40857
      15  52.25875   9.62594         25.13285   6.820000  54.63423   9.40857  49.86819   8.83857  49.88327   9.84330  54.64931  10.41331
      15  52.27384  10.63109         25.15380   6.820000  54.64931  10.41331  49.88327   9.84330  49.89837  10.84888  54.66440  11.41888
      15  52.28894  11.63709         25.17477   6.820000  54.66440  11.41888  49.89837  10.84888  49.91348  11.85529  54.67951  12.42530
      15  52.30405  12.64392         25.19576   6.820000  54.67951  12.42530  49.91348  11.85529  49.92860  12.86255  54.69463  13.43255
      15  52.31918  13.65160         25.21677   6.820000  54.69463  13.43255  49.92860  12.86255  49.94373  13.87064  54.70977  14.44064
      15  52.33432  14.66011         25.23779   6.820000  54.70977  14.44064  49.94373  13.87064  49.95888  14.87957  54.72491  15.44958
      15  52.34947  15.66946         25.25883   6.820000  54.72491  15.44958  49.95888  14.87957  49.97403  15.88935  54.74007  16.45935
      15  52.36464  16.67966         25.27989   6.820000  54.74007  16.45935  49.97403  15.88935  49.98920  16.89997  54.75524  17.46997
      15  52.37981  17.69070         25.30096   6.820000  54.75524  17.46997  49.98920  16.89997  50.00439  17.91142  54.77042  18.48143
      15  52.39500  18.70258         25.32205   6.820000  54.77042  18.48143  50.00439  17.91142  50.01958  18.92373  54.78562  19.49373
      15  52.41021  19.71530         25.34317   6.820000  54.78562  19.49373  50.01958  18.92373  50.03479  19.93687  54.80083  20.50688
      15  52.42542  20.72887         25.36429   6.820000  54.80083  20.50688  50.03479  19.93687  50.05002  20.95086  54.81605  21.52087
      15  52.44065  21.74328         25.38544   6.820000  54.81605  21.52087  50.05002  20.95086  50.06525  21.96570  54.83129  22.53570
      15  52.45589  22.75854         25.40660   6.820000  54.83129  22.53570  50.06525  21.96570  50.08050  22.98138  54.84653  23.55138
      15  52.47114  23.77465         25.42778   6.820000  54.84653  23.55138  50.08050  22.98138  50.09576  23.99791  54.86179  24.56791
      15  52.48641  24.79160         25.44898   6.820000  54.86179  24.56791  50.09576  23.99791  50.11103  25.01529  54.87706  25.58529
      15  52.50169  25.80940         25.47020   6.820000  54.87706  25.58529  50.11103  25.01529  50.12631  26.03351  54.89235  26.60351
      15  52.51698  26.82805         25.49143   6.820000  54.89235  26.60351  50.12631  26.03351  50.14161  27.05258  54.90765  27.62259
      15  52.53229  27.84755         25.51268   6.820000  54.90765  27.62259  50.14161  27.05258  50.15692  28.07251  54.92296  28.64251
      15  52.54760  28.86790         25.53395   6.820000  54.92296  28.64251  50.15692  28.07251  50.17225  29.09328  54.93828  29.66328
      15  52.56293  29.88909         25.55524   6.820000  54.93828  29.66328  50.17225  29.09328  50.18758  30.11491  54.95362  30.68491
      15  52.57828  30.91114         25.57655   6.820000  54.95362  30.68491  50.18758  30.11491  50.20293  31.13738  54.96897  31.70738
      15  52.59363  31.93405         25.59787   6.820000  54.96897  31.70738  50.20293  31.13738  50.21829  32.16071  54.98433  32.73071
      15  52.60900  32.95780         25.61921   6.820000  54.98433  32.73071  50.21829  32.16071  50.23367  33.18489  54.99970  33.75489
      15  52.62438  33.98241         25.64057   6.820000  54.99970  33.75489  50.23367  33.18489  50.24906  34.20993  55.01509  34.77993
      15  52.63977  35.00787         25.66194   6.820000  55.01509  34.77993  50.24906  34.20993  50.26446  35.23582  55.03049  35.80582
      15  52.65518  36.03419         25.68334   6.820000  55.03049  35.80582  50.26446  35.23582  50.27987  36.26256  55.04591  36.83256
      15  52.67060  37.06136         25.70475   6.820000  55.04591  36.83256  50.27987  36.26256  50.29530  37.29016  55.06133  37.86016
      15  52.68603  38.08939         25.72618   6.820000  55.06133  37.86016  50.29530  37.29016  50.31073  38.31862  55.07677  38.88862
      15  52.70148  39.11828         25.74763   6.820000  55.07677  38.88862  50.31073  38.31862  50.32619  39.34793  55.09222  39.91794
      15  52.71694  40.14802         25.76909   6.820000  55.09222  39.91794  50.32619  39.34793  50.34165  40.37811  55.10769  40.94811
      15  52.73241  41.17863         25.79057   6.820000  55.10769  40.94811  50.34165  40.37811  50.35713  41.40914  55.12316  41.97914
      15  52.74789  42.21009         25.81207   6.820000  55.12316  41.97914  50.35713  41.40914  50.37262  42.44103  55.13865  43.01103
      15  52.76339  43.24241         25.83359   6.820000  55.13865  43.01103  50.37262  42.44103  50.38812  43.47378  55.15416  44.04379
      15  52.77890  44.27559         25.85513   6.820000  55.15416  44.04379  50.38812  43.47378  50.40364  44.50740  55.16967  45.07740
      15  52.79442  45.30963         25.87669   6.820000  55.16967  45.07740  50.40364  44.50740  50.41917  45.54187  55.18520  46.11187
      15  52.80996  46.34454         25.89826   6.820000  55.18520  46.11187  50.41917  45.54187  50.43471  46.57721  55.20075  47.14721
      15  52.82550  47.38031         25.91985   6.820000  55.20075  47.14721  50.43471  46.57721  50.45026  47.61341  55.21630  48.18341
      15  52.84107  48.41694         25.94146   6.820000  55.21630  48.18341  50.45026  47.61341  50.46583  48.65047  55.23187  49.22047
      15  52.85664  49.45444         25.96309   6.820000  55.23187  49.22047  50.46583  48.65047  50.48141  49.68840  55.24745  50.25840
      15  52.87223  50.49280         25.98473   6.820000  55.24745  50.25840  50.48141  49.68840  50.49701  50.72719  55.26304  51.29720
      15  52.88783  51.53203         26.00639   6.820000  55.26304  51.29720  50.49701  50.72719  50.51261  51.76685  55.27865  52.33686
      15  52.90344  52.57212         26.02807   6.820000  55.27865  52.33686  50.51261  51.76685  50.52823  52.80738  55.29427  53.37738
      15  52.91907  53.61308         26.04977   6.820000  55.29427  53.37738  50.52823  52.80738  50.54387  53.84877  55.30990  54.41878
      15  52.93471  54.65491         26.07149   6.820000  55.30990  54.41878  50.54387  53.84877  50.55951  54.89104  55.32555  55.46104
      15  52.95036  55.69760         26.09323   6.820000  55.32555  55.46104  50.55951  54.89104  50.57517  55.93417  55.34121  56.50417
      15  52.96603  56.74117         26.11498   6.820000  55.34121  56.50417  50.57517  55.93417  50.59085  56.97817  55.35688  57.54817
      15  52.98171  57.78561         26.13675   6.820000  55.35688  57.54817  50.59085  56.97817  50.60653  58.02304  55.37257  58.59304
      15  52.99740  58.83091         26.15854   6.820000  55.37257  58.59304  50.60653  58.02304  50.62223  59.06878  55.38826  59.63878
      15  53.01310  59.87709         26.18035   6.820000  55.38826  59.63878  50.62223  59.06878  50.63794  60.11540  55.40398  60.68540
      15  53.02882  60.92414         26.20217   6.820000  55.40398  60.68540  50.63794  60.11540  50.65366  61.16288  55.41970  61.73288
      15  53.04455  61.97206         26.22402   6.820000  55.41970  61.73288  50.65366  61.16288  50.66940  62.21124  55.43544  62.78124
      15  53.06030  63.02086         26.24588   6.820000  55.43544  62.78124  50.66940  62.21124  50.68515  63.26048  55.45119  63.83048
      15  53.07605  64.07053         26.26776   6.820000  55.45119  63.83048  50.68515  63.26048  50.70092  64.31058  55.46695  64.88059
      15  53.09182  65.12108         26.28966   6.820000  55.46695  64.88059  50.70092  64.31058  50.71669  65.36157  55.48273  65.93157
      15  53.10761  66.17250         26.31158   6.820000  55.48273  65.93157  50.71669  65.36157  50.73248  66.41343  55.49852  66.98343
      15  53.12340  67.22480         26.33351   6.820000  55.49852  66.98343  50.73248  66.41343  50.74829  67.46616  55.51432  68.03617
      15  53.13921  68.27797         26.35547   6.820000  55.51432  68.03617  50.74829  67.46616  50.76410  68.51978  55.53014  69.08978
      15  53.15504  69.33203         26.37744   6.820000  55.53014  69.08978  50.76410  68.51978  50.77993  69.57427  55.54597  70.14427
      15  53.17087  70.38696         26.39943   6.820000  55.54597  70.14427  50.77993  69.57427  50.79578  70.62964  55.56181  71.19965
      15  53.18672  71.44277         26.42144   6.820000  55.56181  71.19965  50.79578  70.62964  50.81163  71.68590  55.57767  72.25590
      15  53.20259  72.49946         26.44347   6.820000  55.57767  72.25590  50.81163  71.68590  50.82750  72.74303  55.59354  73.31303
      15  53.21846  73.55704         26.46551   6.820000  55.59354  73.31303  50.82750  72.74303  50.84338  73.80104  55.60942  74.37105
      15  53.23435  74.61549         26.48757   6.820000  55.60942  74.37105  50.84338  73.80104  50.85928  74.85994  55.62532  75.42994
      15  53.25025  75.67483         26.50966   6.820000  55.62532  75.42994  50.85928  74.85994  50.87519  75.91972  55.64123  76.48972
      15  53.26617  76.73505         26.53176   6.820000  55.64123  76.48972  50.87519  75.91972  50.89111  76.98038  55.65715  77.55038
      15  53.28210  77.79615         26.55388   6.820000  55.65715  77.55038  50.89111  76.98038  50.90705  78.04193  55.67308  78.61193
      15  53.29804  78.85814         26.57601   6.820000  55.67308  78.61193  50.90705  78.04193  50.92300  79.10436  55.68903  79.67436
      15  53.31399  79.92102         26.59817   6.820000  55.68903  79.67436  50.92300  79.10436  50.93896  80.16767  55.70499  80.73768
      15  53.32996  80.98478         26.62034   6.820000  55.70499  80.73768  50.93896  80.16767  50.95493  81.23188  55.72097  81.80188
      15  53.34595  82.04942         26.64254   6.820000  55.72097  81.80188  50.95493  81.23188  50.97092  82.29697  55.73696  82.86697
      15  53.36194  83.11496         26.66475   6.820000  55.73696  82.86697  50.97092  82.29697  50.98692  83.36295  55.75296  83.93295
      15  53.37795  84.18138         26.68698   6.820000  55.75296  83.93295  50.98692  83.36295  51.00294  84.42981  55.76898  84.99982
      15  53.39397  85.24869         26.70923   6.820000  55.76898  84.99982  51.00294  84.42981  51.01897  85.49757  55.78500  86.06757
      15  53.41001  86.31690         26.73149   6.820000  55.78500  86.06757  51.01897  85.49757  51.03501  86.56622  55.80105  87.13622
      15  53.42606  87.38599         26.75378   6.820000  55.80105  87.13622  51.03501  86.56622  51.05107  87.63576  55.81710  88.20576
      15  53.44212  88.45597         26.77608   6.820000  55.81710  88.20576  51.05107  87.63576  51.06714  88.70618  55.83317  89.27619
      15  53.45819  89.52685         26.79841   6.820000  55.83317  89.27619  51.06714  88.70618  51.08322  89.77751  55.84925  90.34751
      15  53.47428  90.59862         26.82075   6.820000  55.84925  90.34751  51.08322  89.77751  51.09931  90.84972  55.86535  91.41972
      15  53.49039  91.67128         26.84311   6.820000  55.86535  91.41972  51.09931  90.84972  51.11542  91.92283  55.88146  92.49283
      15  53.50650  92.74483         26.86549   6.820000  55.88146  92.49283  51.11542  91.92283  51.13155  92.99683  55.89758  93.56684
      15  53.52263  93.81928         26.88788   6.820000  55.89758  93.56684  51.13155  92.99683  51.14768  94.07173  55.91372  94.64174
      15  53.53877  94.89463         26.91030   6.820000  55.91372  94.64174  51.14768  94.07173  51.16383  95.14753  55.92987  95.71753
      15  53.55493  95.97087         26.93273   6.820000  55.92987  95.71753  51.16383  95.14753  51.17999  96.22422  55.94603  96.79422
      15  53.57110  97.04802         26.95519   6.820000  55.94603  96.79422  51.17999  96.22422  51.19617  97.30181  55.96221  97.87181
      15  53.58728  98.12605         26.97766   6.820000  55.96221  97.87181  51.19617  97.30181  51.21236  98.38030  55.97840  98.95030
      15  53.60348  99.20499         27.00015   6.820000  55.97840  98.95030  51.21236  98.38030  51.22856  99.45968  55.99460 100.02969
      15  53.61969 100.28483         27.02266   6.820000  55.99460 100.02969  51.22856  99.45968  51.24478 100.53997  56.01082 101.10997
      15  53.63591 101.36556         27.04519   6.820000  56.01082 101.10997  51.24478 100.53997  51.26101 101.62116  56.02705 102.19116
      15  53.65215 102.44720         27.06773   6.820000  56.02705 102.19116  51.26101 101.62116  51.27725 102.70325  56.04329 103.27325
      15  53.66840 103.52974         27.09030   6.820000  56.04329 103.27325  51.27725 102.70325  51.29351 103.78624  56.05955 104.35624
      15  53.68467 104.61318         27.11288   6.820000  56.05955 104.35624  51.29351 103.78624  51.30978 104.87013  56.07582 105.44013
      15  53.70094 105.69753         27.13549   6.820000  56.07582 105.44013  51.30978 104.87013  51.32607 105.95493  56.09210 106.52493
      15  53.71723 106.78278         27.15811   6.820000  56.09210 106.52493  51.32607 105.95493  51.34237 107.04063  56.10840 107.61063
      15  53.73354 107.86893         27.18075   6.820000  56.10840 107.61063  51.34237 107.04063  51.35868 108.12724  56.12471 108.69724
      15  53.74986 108.95599         27.20341   6.820000  56.12471 108.69724  51.35868 108.12724  51.37500 109.21475  56.14104 109.78475
      15  53.76619 110.04396         27.22609   6.820000  56.14104 109.78475  51.37500 109.21475  51.39134 110.30317  56.15738 110.87317
      15  53.78254 111.13283         27.24879   6.820000  56.15738 110.87317  51.39134 110.30317  51.40769 111.39249  56.17373 111.96250
      15  53.79890 112.22261         27.27151   6.820000  56.17373 111.96250  51.40769 111.39249  51.42406 112.48273  56.19010 113.05273
      15  53.81527 113.31330         27.29424   6.820000  56.19010 113.05273  51.42406 112.48273  51.44044 113.57387  56.20648 114.14388
      15  53.83166 114.40490         27.31700   6.820000  56.20648 114.14388  51.44044 113.57387  51.45683 114.66593  56.22287 115.23593
      15  53.84806 115.49741         27.33977   6.820000  56.22287 115.23593  51.45683 114.66593  51.47324 115.75889  56.23928 116.32889
      15  53.86447 116.59083         27.36256   6.820000  56.23928 116.32889  51.47324 115.75889  51.48966 116.85276  56.25570 117.42277
      15  53.88090 117.68516         27.38537   6.820000  56.25570 117.42277  51.48966 116.85276  51.50610 117.94755  56.27213 118.51755
      15  53.89734 118.78040         27.40820   6.820000  56.27213 118.51755  51.50610 117.94755  51.52255 119.04325  56.28858 119.61325
      15  53.91379 119.87656         27.43105   6.820000  56.28858 119.61325  51.52255 119.04325  51.53901 120.13986  56.30504 120.70987
      15  53.93026 120.97363         27.45392   6.820000  56.30504 120.70987  51.53901 120.13986  51.55548 121.23739  56.32152 121.80739
      15  53.94675 122.07161         27.47681   6.820000  56.32152 121.80739  51.55548 121.23739  51.57197 122.33583  56.33801 122.90584
      15  53.96324 123.17051         27.49972   6.820000  56.33801 122.90584  51.57197 122.33583  51.58848 123.43519  56.35451 124.00519
      15  53.97975 124.27033         27.52264   6.820000  56.35451 124.00519  51.58848 123.43519  51.60499 124.53547  56.37103 125.10547
      15  53.99628 125.37106         27.54559   6.820000  56.37103 125.10547  51.60499 124.53547  51.62152 125.63666  56.38756 126.20666
      15  54.01281 126.47271         27.56855   6.820000  56.38756 126.20666  51.62152 125.63666  51.63807 126.73877  56.40410 127.30877
      15  54.02937 127.57528         27.59154   6.820000  56.40410 127.30877  51.63807 126.73877  51.65463 127.84180  56.42066 128.41180
      14  64.65479   0.56866         26.68698   8.040000  66.99383   0.40957  62.29052  -0.25479  62.31575   0.72774  67.01906   1.39210
      14  64.68003   1.55160         26.70923   8.040000  67.01906   1.39210  62.31575   0.72774  62.34100   1.71110  67.04431   2.37545
      14  64.70529   2.53536         26.73149   8.040000  67.04431   2.37545  62.34100   1.71110  62.36627   2.69527  67.06958   3.35962
      14  64.73057   3.51994         26.75378   8.040000  67.06958   3.35962  62.36627   2.69527  62.39157   3.68026  67.09488   4.34461
      14  64.75588   4.50534         26.77608   8.040000  67.09488   4.34461  62.39157   3.68026  62.41688   4.66607  67.12019   5.33043
      14  64.78120   5.49157         26.79841   8.040000  67.12019   5.33043  62.41688   4.66607  62.44222   5.65271  67.14553   6.31706
      14  64.80655   6.47861         26.82075   8.040000  67.14553   6.31706  62.44222   5.65271  62.46757   6.64016  67.17088   7.30452
      14  64.83192   7.46648         26.84311   8.040000  67.17088   7.30452  62.46757   6.64016  62.49295   7.62845  67.19626   8.29280
      14  64.85730   8.45518         26.86549   8.040000  67.19626   8.29280  62.49295   7.62845  62.51835   8.61755  67.22166   9.28191
      14  64.88271   9.44469         26.88788   8.040000  67.22166   9.28191  62.51835   8.61755  62.54377   9.60748  67.24708  10.27183
      14  64.90814  10.43503         26.91030   8.040000  67.24708  10.27183  62.54377   9.60748  62.56921  10.59823  67.27252  11.26259
      14  64.93360  11.42620         26.93273   8.040000  67.27252  11.26259  62.56921  10.59823  62.59467  11.58981  67.29798  12.25417
      14  64.95907  12.41820         26.95519   8.040000  67.29798  12.25417  62.59467  11.58981  62.62016  12.58222  67.32347  13.24658
      14  64.98456  13.41102         26.97766   8.040000  67.32347  13.24658  62.62016  12.58222  62.64566  13.57546  67.34897  14.23981
      14  65.01008  14.40466         27.00015   8.040000  67.34897  14.23981  62.64566  13.57546  62.67119  14.56952  67.37450  15.23387
      14  65.03562  15.39914         27.02266   8.040000  67.37450  15.23387  62.67119  14.56952  62.69673  15.56441  67.40004  16.22877
      14  65.06117  16.39445         27.04519   8.040000  67.40004  16.22877  62.69673  15.56441  62.72230  16.56013  67.42561  17.22449
      14  65.08675  17.39058         27.06773   8.040000  67.42561  17.22449  62.72230  16.56013  62.74789  17.55668  67.45120  18.22104
      14  65.11235  18.38755         27.09030   8.040000  67.45120  18.22104  62.74789  17.55668  62.77350  18.55406  67.47681  19.21842
      14  65.13798  19.38535         27.11288   8.040000  67.47681  19.21842  62.77350  18.55406  62.79914  19.55228  67.50245  20.21663
      14  65.16362  20.38398         27.13549   8.040000  67.50245  20.21663  62.79914  19.55228  62.82479  20.55132  67.52810  21.21568
      14  65.18928  21.38344         27.15811   8.040000  67.52810  21.21568  62.82479  20.55132  62.85047  21.55120  67.55378  22.21555
      14  65.21497  22.38373         27.18075   8.040000  67.55378  22.21555  62.85047  21.55120  62.87616  22.55191  67.57947  23.21627
      14  65.24068  23.38486         27.20341   8.040000  67.57947  23.21627  62.87616  22.55191  62.90188  23.55346  67.60519  24.21781
      14  65.26641  24.38683         27.22609   8.040000  67.60519  24.21781  62.90188  23.55346  62.92762  24.55584  67.63093  25.22019
      14  65.29216  25.38962         27.24879   8.040000  67.63093  25.22019  62.92762  24.55584  62.95338  25.55905  67.65669  26.22341
      14  65.31793  26.39326         27.27151   8.040000  67.65669  26.22341  62.95338  25.55905  62.97917  26.56311  67.68248  27.22746
      14  65.34372  27.39773         27.29424   8.040000  67.68248  27.22746  62.97917  26.56311  63.00497  27.56800  67.70828  28.23235
      14  65.36954  28.40304         27.31700   8.040000  67.70828  28.23235  63.00497  27.56800  63.03080  28.57373  67.73411  29.23808
      14  65.39537  29.40919         27.33977   8.040000  67.73411  29.23808  63.03080  28.57373  63.05664  29.58029  67.75995  30.24465
      14  65.42123  30.41617         27.36256   8.040000  67.75995  30.24465  63.05664  29.58029  63.08251  30.58770  67.78582  31.25205
      14  65.44711  31.42400         27.38537   8.040000  67.78582  31.25205  63.08251  30.58770  63.10840  31.59594  67.81171  32.26030
      14  65.47301  32.43266         27.40820   8.040000  67.81171  32.26030  63.10840  31.59594  63.13431  32.60503  67.83762  33.26939
      14  65.49894  33.44217         27.43105   8.040000  67.83762  33.26939  63.13431  32.60503  63.16025  33.61496  67.86356  34.27931
      14  65.52488  34.45252         27.45392   8.040000  67.86356  34.27931  63.16025  33.61496  63.18620  34.62573  67.88951  35.29008
      14  65.55085  35.46371         27.47681   8.040000  67.88951  35.29008  63.18620  34.62573  63.21218  35.63734  67.91549  36.30169
      14  65.57683  36.47574         27.49972   8.040000  67.91549  36.30169  63.21218  35.63734  63.23818  36.64979  67.94149  37.31415
      14  65.60284  37.48862         27.52264   8.040000  67.94149  37.31415  63.23818  36.64979  63.26420  37.66309  67.96751  38.32745
      14  65.62887  38.50234         27.54559   8.040000  67.96751  38.32745  63.26420  37.66309  63.29024  38.67724  67.99355  39.34159
      14  65.65493  39.51691         27.56855   8.040000  67.99355  39.34159  63.29024  38.67724  63.31630  39.69223  68.01961  40.35658
      14  65.68100  40.53232         27.59154   8.040000  68.01961  40.35658  63.31630  39.69223  63.34239  40.70806  68.04570  41.37242
      14  65.70710  41.54858         27.61454   8.040000  68.04570  41.37242  63.34239  40.70806  63.36849  41.72474  68.07181  42.38910
      14  65.73321  42.56569         27.63756   8.040000  68.07181  42.38910  63.36849  41.72474  63.39462  42.74227  68.09793  43.40663
      14  65.75935  43.58364         27.66060   8.040000  68.09793  43.40663  63.39462  42.74227  63.42077  43.76065  68.12408  44.42501
      14  65.78552  44.60244         27.68366   8.040000  68.12408  44.42501  63.42077  43.76065  63.44695  44.77988  68.15026  45.44424
      14  65.81170  45.62210         27.70674   8.040000  68.15026  45.44424  63.44695  44.77988  63.47314  45.79996  68.17645  46.46431
      14  65.83790  46.64260         27.72984   8.040000  68.17645  46.46431  63.47314  45.79996  63.49936  46.82088  68.20267  47.48524
      14  65.86413  47.66395         27.75296   8.040000  68.20267  47.48524  63.49936  46.82088  63.52559  47.84266  68.22891  48.50702
      14  65.89038  48.68616         27.77609   8.040000  68.22891  48.50702  63.52559  47.84266  63.55185  48.86529  68.25516  49.52965
      14  65.91665  49.70921         27.79925   8.040000  68.25516  49.52965  63.55185  48.86529  63.57814  49.88878  68.28145  50.55313
      14  65.94294  50.73312         27.82243   8.040000  68.28145  50.55313  63.57814  49.88878  63.60444  50.91311  68.30775  51.57747
      14  65.96926  51.75789         27.84562   8.040000  68.30775  51.57747  63.60444  50.91311  63.63076  51.93830  68.33408  52.60266
      14  65.99559  52.78350         27.86884   8.040000  68.33408  52.60266  63.63076  51.93830  63.65711  52.96435  68.36042  53.62871
      14  66.02195  53.80998         27.89207   8.040000  68.36042  53.62871  63.65711  52.96435  63.68348  53.99125  68.38679  54.65561
      14  66.04833  54.83731         27.91532   8.040000  68.38679  54.65561  63.68348  53.99125  63.70987  55.01901  68.41318  55.68336
      14  66.07474  55.86549         27.93860   8.040000  68.41318  55.68336  63.70987  55.01901  63.73629  56.04762  68.43960  56.71198
      14  66.10116  56.89453         27.96189   8.040000  68.43960  56.71198  63.73629  56.04762  63.76272  57.07709  68.46603  57.74145
      14  66.12761  57.92443         27.98520   8.040000  68.46603  57.74145  63.76272  57.07709  63.78918  58.10742  68.49249  58.77178
      14  66.15407  58.95519         28.00853   8.040000  68.49249  58.77178  63.78918  58.10742  63.81566  59.13861  68.51897  59.80296
      14  66.18056  59.98681         28.03188   8.040000  68.51897  59.80296  63.81566  59.13861  63.84216  60.17066  68.54547  60.83501
      14  66.20708  61.01929         28.05525   8.040000  68.54547  60.83501  63.84216  60.17066  63.86868  61.20356  68.57199  61.86792
      14  66.23361  62.05263         28.07864   8.040000  68.57199  61.86792  63.86868  61.20356  63.89523  62.23733  68.59854  62.90169
      14  66.26017  63.08683         28.10205   8.040000  68.59854  62.90169  63.89523  62.23733  63.92180  63.27197  68.62511  63.93632
      14  66.28675  64.12189         28.12547   8.040000  68.62511  63.93632  63.92180  63.27197  63.94839  64.30746  68.65170  64.97182
      14  66.31335  65.15782         28.14892   8.040000  68.65170  64.97182  63.94839  64.30746  63.97500  65.34382  68.67831  66.00817
      14  66.33997  66.19460         28.17239   8.040000  68.67831  66.00817  63.97500  65.34382  64.00163  66.38104  68.70494  67.04539
      14  66.36662  67.23226         28.19588   8.040000  68.70494  67.04539  64.00163  66.38104  64.02829  67.41912  68.73160  68.08348
      14  66.39329  68.27078         28.21938   8.040000  68.73160  68.08348  64.02829  67.41912  64.05497  68.45807  68.75828  69.12243
      14  66.41998  69.31016         28.24291   8.040000  68.75828  69.12243  64.05497  68.45807  64.08167  69.49789  68.78498  70.16225
      14  66.44669  70.35041         28.26645   8.040000  68.78498  70.16225  64.08167  69.49789  64.10839  70.53858  68.81170  71.20293
      14  66.47342  71.39153         28.29002   8.040000  68.81170  71.20293  64.10839  70.53858  64.13514  71.58013  68.83845  72.24448
      14  66.50018  72.43352         28.31360   8.040000  68.83845  72.24448  64.13514  71.58013  64.16191  72.62255  68.86522  73.28690
      14  66.52696  73.47637         28.33721   8.040000  68.86522  73.28690  64.16191  72.62255  64.18870  73.66584  68.89201  74.33019
      14  66.55376  74.52010         28.36083   8.040000  68.89201  74.33019  64.18870  73.66584  64.21551  74.71000  68.91882  75.37435
      14  66.58058  75.56469         28.38448   8.040000  68.91882  75.37435  64.21551  74.71000  64.24235  75.75503  68.94566  76.41938
      14  66.60743  76.61015         28.40814   8.040000  68.94566  76.41938  64.24235  75.75503  64.26920  76.80093  68.97251  77.46528
      14  66.63430  77.65649         28.43182   8.040000  68.97251  77.46528  64.26920  76.80093  64.29608  77.84770  68.99939  78.51206
      14  66.66119  78.70370         28.45553   8.040000  68.99939  78.51206  64.29608  77.84770  64.32298  78.89535  69.02629  79.55970
      14  66.68810  79.75178         28.47925   8.040000  69.02629  79.55970  64.32298  78.89535  64.34991  79.94386  69.05322  80.60822
      14  66.71504  80.80074         28.50299   8.040000  69.05322  80.60822  64.34991  79.94386  64.37686  80.99326  69.08017  81.65761
      14  66.74200  81.85057         28.52675   8.040000  69.08017  81.65761  64.37686  80.99326  64.40383  82.04352  69.10714  82.70788
      14  66.76898  82.90127         28.55054   8.040000  69.10714  82.70788  64.40383  82.04352  64.43082  83.09467  69.13413  83.75902
      14  66.79598  83.95286         28.57434   8.040000  69.13413  83.75902  64.43082  83.09467  64.45783  84.14669  69.16114  84.81104
      14  66.82301  85.00531         28.59816   8.040000  69.16114  84.81104  64.45783  84.14669  64.48487  85.19958  69.18818  85.86394
      14  66.85005  86.05865         28.62200   8.040000  69.18818  85.86394  64.48487  85.19958  64.51193  86.25336  69.21524  86.91772
      14  66.87712  87.11286         28.64586   8.040000  69.21524  86.91772  64.51193  86.25336  64.53901  87.30801  69.24232  87.97237
      14  66.90422  88.16796         28.66975   8.040000  69.24232  87.97237  64.53901  87.30801  64.56611  88.36354  69.26943  89.02790
      14  66.93133  89.22393         28.69365   8.040000  69.26943  89.02790  64.56611  88.36354  64.59324  89.41996  69.29655  90.08431
      14  66.95847  90.28078         28.71757   8.040000  69.29655  90.08431  64.59324  89.41996  64.62039  90.47725  69.32370  91.14161
      14  66.98563  91.33852         28.74151   8.040000  69.32370  91.14161  64.62039  90.47725  64.64756  91.53542  69.35087  92.19978
      14  67.01282  92.39713         28.76547   8.040000  69.35087  92.19978  64.64756  91.53542  64.67476  92.59448  69.37807  93.25884
      14  67.04002  93.45663         28.78945   8.040000  69.37807  93.25884  64.67476  92.59448  64.70198  93.65442  69.40529  94.31878
      14  67.06725  94.51701         28.81345   8.040000  69.40529  94.31878  64.70198  93.65442  64.72922  94.71524  69.43253  95.37960
      14  67.09450  95.57828         28.83747   8.040000  69.43253  95.37960  64.72922  94.71524  64.75648  95.77695  69.45979  96.44131
      14  67.12178  96.64043         28.86152   8.040000  69.45979  96.44131  64.75648  95.77695  64.78377  96.83954  69.48708  97.50390
      14  67.14908  97.70346         28.88558   8.040000  69.48708  97.50390  64.78377  96.83954  64.81107  97.90302  69.51439  98.56738
      14  67.17640  98.76738         28.90966   8.040000  69.51439  98.56738  64.81107  97.90302  64.83841  98.96739  69.54172  99.63174
      14  67.20374  99.83219         28.93376   8.040000  69.54172  99.63174  64.83841  98.96739  64.86576 100.03264  69.56907 100.69700
      14  67.23110 100.89789         28.95788   8.040000  69.56907 100.69700  64.86576 100.03264  64.89314 101.09878  69.59645 101.76314
      14  67.25849 101.96447         28.98202   8.040000  69.59645 101.76314  64.89314 101.09878  64.92054 102.16581  69.62385 102.83017
      14  67.28590 103.03195         29.00618   8.040000  69.62385 102.83017  64.92054 102.16581  64.94796 103.23373  69.65127 103.89809
      14  67.31334 104.10031         29.03037   8.040000  69.65127 103.89809  64.94796 103.23373  64.97541 104.30254  69.67872 104.96690
      14  67.34080 105.16957         29.05457   8.040000  69.67872 104.96690  64.97541 104.30254  65.00287 105.37224  69.70618 106.03660
      14  67.36827 106.23971         29.07879   8.040000  69.70618 106.03660  65.00287 105.37224  65.03037 106.44283  69.73368 107.10719
      14  67.39578 107.31075         29.10303   8.040000  69.73368 107.10719  65.03037 106.44283  65.05788 107.51432  69.76119 108.17867
      14  67.42330 108.38268         29.12730   8.040000  69.76119 108.17867  65.05788 107.51432  65.08542 108.58670  69.78873 109.25105
      14  67.45085 109.45551         29.15158   8.040000  69.78873 109.25105  65.08542 108.58670  65.11298 109.65997  69.81629 110.32432
      14  67.47842 110.52923         29.17588   8.040000  69.81629 110.32432  65.11298 109.65997  65.14056 110.73413  69.84387 111.39849
      14  67.50602 111.60384         29.20021   8.040000  69.84387 111.39849  65.14056 110.73413  65.16817 111.80920  69.87148 112.47355
      14  67.53364 112.67935         29.22455   8.040000  69.87148 112.47355  65.16817 111.80920  65.19580 112.88516  69.89911 113.54951
      14  67.56128 113.75576         29.24891   8.040000  69.89911 113.54951  65.19580 112.88516  65.22345 113.96201  69.92676 114.62637
      14  67.58894 114.83307         29.27330   8.040000  69.92676 114.62637  65.22345 113.96201  65.25112 115.03976  69.95443 115.70412
      14  67.61663 115.91127         29.29770   8.040000  69.95443 115.70412  65.25112 115.03976  65.27882 116.11842  69.98213 116.78277
      14  67.64434 116.99037         29.32213   8.040000  69.98213 116.78277  65.27882 116.11842  65.30654 117.19797  70.00985 117.86232
      14  67.67207 118.07037         29.34657   8.040000  70.00985 117.86232  65.30654 117.19797  65.33429 118.27842  70.03760 118.94277
      14  67.69983 119.15127         29.37104   8.040000  70.03760 118.94277  65.33429 118.27842  65.36205 119.35977  70.06536 120.02413
      14  67.72760 120.23308         29.39552   8.040000  70.06536 120.02413  65.36205 119.35977  65.38984 120.44202  70.09316 121.10638
      14  67.75541 121.31578         29.42003   8.040000  70.09316 121.10638  65.38984 120.44202  65.41766 121.52518  70.12097 122.18954
      14  67.78323 122.39939         29.44456   8.040000  70.12097 122.18954  65.41766 121.52518  65.44550 122.60924  70.14881 123.27359
      14  67.81108 123.48390         29.46910   8.040000  70.14881 123.27359  65.44550 122.60924  65.47336 123.69420  70.17667 124.35856
      14  67.83895 124.56931         29.49367   8.040000  70.17667 124.35856  65.47336 123.69420  65.50124 124.78007  70.20455 125.44442
      14  67.86685 125.65563         29.51826   8.040000  70.20455 125.44442  65.50124 124.78007  65.52915 125.86684  70.23246 126.53120
      14  67.89477 126.74286         29.54287   8.040000  70.23246 126.53120  65.52915 125.86684  65.55708 126.95452  70.26039 127.61887
      14  67.92271 127.83099         29.56750   8.040000  70.26039 127.61887  65.55708 126.95452  65.58503 128.04310  70.28834 128.70746
      13  79.13545   0.08357         28.76547   9.250000  81.46079  -0.07029  76.77256  -0.83382  76.81012   0.23744  81.49835   1.00096
      13  79.17303   1.15527         28.78945   9.250000  81.49835   1.00096  76.81012   0.23744  76.84771   1.30958  81.53594   2.07311
      13  79.21063   2.22787         28.81345   9.250000  81.53594   2.07311  76.84771   1.30958  76.88533   2.38262  81.57356   3.14615
      13  79.24827   3.30135         28.83747   9.250000  81.57356   3.14615  76.88533   2.38262  76.92298   3.45656  81.61121   4.22009
      13  79.28594   4.37574         28.86152   9.250000  81.61121   4.22009  76.92298   3.45656  76.96067   4.53139  81.64890   5.29492
      13  79.32364   5.45102         28.88558   9.250000  81.64890   5.29492  76.96067   4.53139  76.99838   5.60712  81.68661   6.37064
      13  79.36137   6.52719         28.90966   9.250000  81.68661   6.37064  76.99838   5.60712  77.03613   6.68374  81.72436   7.44727
      13  79.39913   7.60426         28.93376   9.250000  81.72436   7.44727  77.03613   6.68374  77.07391   7.76126  81.76214   8.52479
      13  79.43693   8.68223         28.95788   9.250000  81.76214   8.52479  77.07391   7.76126  77.11172   8.83968  81.79995   9.60321
      13  79.47476   9.76110         28.98202   9.250000  81.79995   9.60321  77.11172   8.83968  77.14956   9.91900  81.83779  10.68253
      13  79.51261  10.84087         29.00618   9.250000  81.83779  10.68253  77.14956   9.91900  77.18743  10.99922  81.87567  11.76275
      13  79.55050  11.92154         29.03037   9.250000  81.87567  11.76275  77.18743  10.99922  77.22534  12.08034  81.91357  12.84386
      13  79.58842  13.00311         29.05457   9.250000  81.91357  12.84386  77.22534  12.08034  77.26328  13.16236  81.95151  13.92588
      13  79.62638  14.08558         29.07879   9.250000  81.95151  13.92588  77.26328  13.16236  77.30124  14.24528  81.98948  15.00881
      13  79.66436  15.16896         29.10303   9.250000  81.98948  15.00881  77.30124  14.24528  77.33924  15.32910  82.02748  16.09263
      13  79.70238  16.25323         29.12730   9.250000  82.02748  16.09263  77.33924  15.32910  77.37728  16.41383  82.06551  17.17736
      13  79.74042  17.33841         29.15158   9.250000  82.06551  17.17736  77.37728  16.41383  77.41534  17.49947  82.10357  18.26299
      13  79.77850  18.42450         29.17588   9.250000  82.10357  18.26299  77.41534  17.49947  77.45343  18.58600  82.14167  19.34953
      13  79.81661  19.51149         29.20021   9.250000  82.14167  19.34953  77.45343  18.58600  77.49156  19.67345  82.17979  20.43698
      13  79.85476  20.59939         29.22455   9.250000  82.17979  20.43698  77.49156  19.67345  77.52972  20.76180  82.21795  21.52533
      13  79.89293  21.68819         29.24891   9.250000  82.21795  21.52533  77.52972  20.76180  77.56791  21.85106  82.25614  22.61458
      13  79.93114  22.77790         29.27330   9.250000  82.25614  22.61458  77.56791  21.85106  77.60613  22.94122  82.29436  23.70475
      13  79.96938  23.86852         29.29770   9.250000  82.29436  23.70475  77.60613  22.94122  77.64439  24.03230  82.33262  24.79582
      13  80.00765  24.96005         29.32213   9.250000  82.33262  24.79582  77.64439  24.03230  77.68267  25.12428  82.37090  25.88781
      13  80.04595  26.05249         29.34657   9.250000  82.37090  25.88781  77.68267  25.12428  77.72099  26.21718  82.40922  26.98070
      13  80.08428  27.14584         29.37104   9.250000  82.40922  26.98070  77.72099  26.21718  77.75934  27.31098  82.44757  28.07451
      13  80.12265  28.24010         29.39552   9.250000  82.44757  28.07451  77.75934  27.31098  77.79772  28.40570  82.48595  29.16923
      13  80.16105  29.33528         29.42003   9.250000  82.48595  29.16923  77.79772  28.40570  77.83614  29.50133  82.52437  30.26486
      13  80.19948  30.43137         29.44456   9.250000  82.52437  30.26486  77.83614  29.50133  77.87458  30.59787  82.56281  31.36140
      13  80.23794  31.52837         29.46910   9.250000  82.56281  31.36140  77.87458  30.59787  77.91306  31.69533  82.60129  32.45886
      13  80.27643  32.62628         29.49367   9.250000  82.60129  32.45886  77.91306  31.69533  77.95157  32.79370  82.63980  33.55723
      13  80.31496  33.72511         29.51826   9.250000  82.63980  33.55723  77.95157  32.79370  77.99011  33.89299  82.67834  34.65652
      13  80.35352  34.82486         29.54287   9.250000  82.67834  34.65652  77.99011  33.89299  78.02869  34.99320  82.71692  35.75672
      13  80.39211  35.92552         29.56750   9.250000  82.71692  35.75672  78.02869  34.99320  78.06729  36.09432  82.75553  36.85785
      13  80.43073  37.02710         29.59215   9.250000  82.75553  36.85785  78.06729  36.09432  78.10593  37.19636  82.79416  37.95989
      13  80.46938  38.12960         29.61682   9.250000  82.79416  37.95989  78.10593  37.19636  78.14460  38.29932  82.83283  39.06285
      13  80.50807  39.23302         29.64151   9.250000  82.83283  39.06285  78.14460  38.29932  78.18331  39.40320  82.87154  40.16672
      13  80.54679  40.33736         29.66622   9.250000  82.87154  40.16672  78.18331  39.40320  78.22204  40.50800  82.91027  41.27152
      13  80.58554  41.44262         29.69095   9.250000  82.91027  41.27152  78.22204  40.50800  78.26081  41.61371  82.94904  42.37724
      13  80.62432  42.54880         29.71571   9.250000  82.94904  42.37724  78.26081  41.61371  78.29961  42.72036  82.98784  43.48388
      13  80.66314  43.65590         29.74048   9.250000  82.98784  43.48388  78.29961  42.72036  78.33844  43.82792  83.02667  44.59145
      13  80.70199  44.76393         29.76527   9.250000  83.02667  44.59145  78.33844  43.82792  78.37730  44.93641  83.06554  45.69993
      13  80.74087  45.87288         29.79009   9.250000  83.06554  45.69993  78.37730  44.93641  78.41620  46.04582  83.10443  46.80935
      13  80.77978  46.98275         29.81492   9.250000  83.10443  46.80935  78.41620  46.04582  78.45513  47.15616  83.14336  47.91968
      13  80.81873  48.09355         29.83978   9.250000  83.14336  47.91968  78.45513  47.15616  78.49409  48.26742  83.18233  49.03094
      13  80.85771  49.20528         29.86466   9.250000  83.18233  49.03094  78.49409  48.26742  78.53309  49.37961  83.22132  50.14313
      13  80.89672  50.31793         29.88955   9.250000  83.22132  50.14313  78.53309  49.37961  78.57211  50.49272  83.26035  51.25625
      13  80.93576  51.43151         29.91447   9.250000  83.26035  51.25625  78.57211  50.49272  78.61117  51.60677  83.29941  52.37029
      13  80.97484  52.54602         29.93941   9.250000  83.29941  52.37029  78.61117  51.60677  78.65027  52.72174  83.33850  53.48526
      13  81.01394  53.66145         29.96437   9.250000  83.33850  53.48526  78.65027  52.72174  78.68939  53.83764  83.37762  54.60117
      13  81.05309  54.77782         29.98935   9.250000  83.37762  54.60117  78.68939  53.83764  78.72855  54.95447  83.41678  55.71800
      13  81.09226  55.89512         30.01435   9.250000  83.41678  55.71800  78.72855  54.95447  78.76774  56.07223  83.45597  56.83576
      13  81.13147  57.01335         30.03938   9.250000  83.45597  56.83576  78.76774  56.07223  78.80696  57.19093  83.49519  57.95446
      13  81.17070  58.13251         30.06442   9.250000  83.49519  57.95446  78.80696  57.19093  78.84622  58.31056  83.53445  59.07408
      13  81.20998  59.25260         30.08948   9.250000  83.53445  59.07408  78.84622  58.31056  78.88550  59.43112  83.57374  60.19465
      13  81.24928  60.37363         30.11457   9.250000  83.57374  60.19465  78.88550  59.43112  78.92482  60.55261  83.61306  61.31614
      13  81.28862  61.49559         30.13968   9.250000  83.61306  61.31614  78.92482  60.55261  78.96418  61.67504  83.65241  62.43857
      13  81.32799  62.61849         30.16480   9.250000  83.65241  62.43857  78.96418  61.67504  79.00356  62.79841  83.69180  63.56194
      13  81.36739  63.74233         30.18995   9.250000  83.69180  63.56194  79.00356  62.79841  79.04298  63.92271  83.73122  64.68624
      13  81.40683  64.86710         30.21512   9.250000  83.73122  64.68624  79.04298  63.92271  79.08244  65.04795  83.77067  65.81148
      13  81.44629  65.99281         30.24031   9.250000  83.77067  65.81148  79.08244  65.04795  79.12192  66.17413  83.81015  66.93766
      13  81.48580  67.11945         30.26552   9.250000  83.81015  66.93766  79.12192  66.17413  79.16144  67.30125  83.84967  68.06477
      13  81.52533  68.24704         30.29075   9.250000  83.84967  68.06477  79.16144  67.30125  79.20099  68.42930  83.88922  69.19283
      13  81.56490  69.37557         30.31600   9.250000  83.88922  69.19283  79.20099  68.42930  79.24057  69.55830  83.92881  70.32183
      13  81.60450  70.50503         30.34128   9.250000  83.92881  70.32183  79.24057  69.55830  79.28019  70.68824  83.96842  71.45177
      13  81.64413  71.63544         30.36657   9.250000  83.96842  71.45177  79.28019  70.68824  79.31984  71.81912  84.00807  72.58265
      13  81.68380  72.76679         30.39189   9.250000  84.00807  72.58265  79.31984  71.81912  79.35952  72.95094  84.04775  73.71447
      13  81.72350  73.89909         30.41723   9.250000  84.04775  73.71447  79.35952  72.95094  79.39924  74.08371  84.08747  74.84724
      13  81.76323  75.03233         30.44258   9.250000  84.08747  74.84724  79.39924  74.08371  79.43899  75.21742  84.12722  75.98095
      13  81.80299  76.16651         30.46796   9.250000  84.12722  75.98095  79.43899  75.21742  79.47877  76.35207  84.16700  77.11560
      13  81.84279  77.30164         30.49336   9.250000  84.16700  77.11560  79.47877  76.35207  79.51858  77.48768  84.20682  78.25120
      13  81.88263  78.43771         30.51879   9.250000  84.20682  78.25120  79.51858  77.48768  79.55843  78.62423  84.24667  79.38775
      13  81.92249  79.57474         30.54423   9.250000  84.24667  79.38775  79.55843  78.62423  79.59831  79.76172  84.28655  80.52525
      13  81.96239  80.71271         30.56969   9.250000  84.28655  80.52525  79.59831  79.76172  79.63823  80.90017  84.32646  81.66369
      13  82.00232  81.85163         30.59518   9.250000  84.32646  81.66369  79.63823  80.90017  79.67818  82.03956  84.36641  82.80309
      13  82.04229  82.99149         30.62068   9.250000  84.36641  82.80309  79.67818  82.03956  79.71816  83.17990  84.40639  83.94343
      13  82.08228  84.13231         30.64621   9.250000  84.40639  83.94343  79.71816  83.17990  79.75817  84.32120  84.44641  85.08472
      13  82.12231  85.27408         30.67176   9.250000  84.44641  85.08472  79.75817  84.32120  79.79822  85.46344  84.48646  86.22697
      13  82.16238  86.41680         30.69733   9.250000  84.48646  86.22697  79.79822  85.46344  79.83830  86.60664  84.52654  87.37017
      13  82.20248  87.56048         30.72292   9.250000  84.52654  87.37017  79.83830  86.60664  79.87842  87.75079  84.56665  88.51432
      13  82.24261  88.70511         30.74854   9.250000  84.56665  88.51432  79.87842  87.75079  79.91857  88.89589  84.60680  89.65942
      13  82.28278  89.85069         30.77417   9.250000  84.60680  89.65942  79.91857  88.89589  79.95875  90.04195  84.64698  90.80548
      13  82.32297  90.99723         30.79983   9.250000  84.64698  90.80548  79.95875  90.04195  79.99897  91.18897  84.68720  91.95250
      13  82.36321  92.14472         30.82550   9.250000  84.68720  91.95250  79.99897  91.18897  80.03921  92.33694  84.72745  93.10047
      13  82.40347  93.29317         30.85120   9.250000  84.72745  93.10047  80.03921  92.33694  80.07950  93.48587  84.76773  94.24939
      13  82.44377  94.44257         30.87692   9.250000  84.76773  94.24939  80.07950  93.48587  80.11981  94.63575  84.80805  95.39928
      13  82.48410  95.59294         30.90266   9.250000  84.80805  95.39928  80.11981  94.63575  80.16016  95.78660  84.84840  96.55013
      13  82.52447  96.74426         30.92843   9.250000  84.84840  96.55013  80.16016  95.78660  80.20055  96.93840  84.88878  97.70193
      13  82.56487  97.89655         30.95421   9.250000  84.88878  97.70193  80.20055  96.93840  80.24096  98.09117  84.92920  98.85469
      13  82.60531  99.04979         30.98002   9.250000  84.92920  98.85469  80.24096  98.09117  80.28141  99.24489  84.96965 100.00842
      13  82.64577 100.20400         31.00585   9.250000  84.96965 100.00842  80.28141  99.24489  80.32190 100.39958  85.01013 101.16311
      13  82.68627 101.35917         31.03169   9.250000  85.01013 101.16311  80.32190 100.39958  80.36242 101.55523  85.05065 102.31875
      13  82.72681 102.51530         31.05756   9.250000  85.05065 102.31875  80.36242 101.55523  80.40297 102.71184  85.09120 103.47537
      13  82.76738 103.67239         31.08346   9.250000  85.09120 103.47537  80.40297 102.71184  80.44355 103.86942  85.13179 104.63294
      13  82.80798 104.83045         31.10937   9.250000  85.13179 104.63294  80.44355 103.86942  80.48417 105.02796  85.17241 105.79149
      13  82.84862 105.98948         31.13531   9.250000  85.17241 105.79149  80.48417 105.02796  80.52483 106.18747  85.21306 106.95100
      13  82.88929 107.14947         31.16126   9.250000  85.21306 106.95100  80.52483 106.18747  80.56552 107.34794  85.25375 108.11147
      13  82.92999 108.31043         31.18724   9.250000  85.25375 108.11147  80.56552 107.34794  80.60624 108.50939  85.29447 109.27291
      13  82.97073 109.47235         31.21324   9.250000  85.29447 109.27291  80.60624 108.50939  80.64699 109.67180  85.33522 110.43532
      13  83.01150 110.63525         31.23926   9.250000  85.33522 110.43532  80.64699 109.67180  80.68778 110.83518  85.37601 111.59870
      13  83.05231 111.79911         31.26531   9.250000  85.37601 111.59870  80.68778 110.83518  80.72860 111.99952  85.41684 112.76305
      13  83.09315 112.96395         31.29137   9.250000  85.41684 112.76305  80.72860 111.99952  80.76946 113.16484  85.45769 113.92837
      13  83.13402 114.12975         31.31746   9.250000  85.45769 113.92837  80.76946 113.16484  80.81035 114.33114  85.49859 115.09466
      13  83.17493 115.29653         31.34357   9.250000  85.49859 115.09466  80.81035 114.33114  80.85128 115.49840  85.53951 116.26193
      13  83.21587 116.46428         31.36970   9.250000  85.53951 116.26193  80.85128 115.49840  80.89224 116.66664  85.58047 117.43016
      13  83.25685 117.63301         31.39585   9.250000  85.58047 117.43016  80.89224 116.66664  80.93323 117.83585  85.62146 118.59938
      13  83.29786 118.80270         31.42203   9.250000  85.62146 118.59938  80.93323 117.83585  80.97426 119.00603  85.66249 119.76956
      13  83.33891 119.97338         31.44822   9.250000  85.66249 119.76956  80.97426 119.00603  81.01532 120.17720  85.70355 120.94072
      13  83.37999 121.14503         31.47444   9.250000  85.70355 120.94072  81.01532 120.17720  81.05642 121.34933  85.74465 122.11286
      13  83.42110 122.31765         31.50068   9.250000  85.74465 122.11286  81.05642 121.34933  81.09755 122.52245  85.78578 123.28597
      13  83.46225 123.49126         31.52694   9.250000  85.78578 123.28597  81.09755 122.52245  81.13871 123.69654  85.82695 124.46007
      13  83.50343 124.66584         31.55322   9.250000  85.82695 124.46007  81.13871 123.69654  81.17991 124.87161  85.86815 125.63514
      13  83.54465 125.84140         31.57953   9.250000  85.86815 125.63514  81.17991 124.87161  81.22115 126.04766  85.90938 126.81119
      13  83.58590 127.01794         31.60586   9.250000  85.90938 126.81119  81.22115 126.04766  81.26241 127.22469  85.95065 127.98822
      12  95.34831   0.02054         30.92843  10.490000  97.58874  -0.05996  93.05579  -0.89927  93.10788   0.10104  97.64083   0.94035
      12  95.40042   1.02127         30.95421  10.490000  97.64083   0.94035  93.10788   0.10104  93.16001   1.10218  97.69296   1.94150
      12  95.45257   2.02283         30.98002  10.490000  97.69296   1.94150  93.16001   1.10218  93.21218   2.10416  97.74514   2.94347
      12  95.50477   3.02522         31.00585  10.490000  97.74514   2.94347  93.21218   2.10416  93.26440   3.10697  97.79736   3.94629
      12  95.55701   4.02845         31.03169  10.490000  97.79736   3.94629  93.26440   3.10697  93.31667   4.11062  97.84962   4.94993
      12  95.60930   5.03252         31.05756  10.490000  97.84962   4.94993  93.31667   4.11062  93.36897   5.11510  97.90193   5.95442
      12  95.66162   6.03742         31.08346  10.490000  97.90193   5.95442  93.36897   5.11510  93.42132   6.12043  97.95428   6.95974
      12  95.71400   7.04317         31.10937  10.490000  97.95428   6.95974  93.42132   6.12043  93.47372   7.12659  98.00667   7.96590
      12  95.76641   8.04975         31.13531  10.490000  98.00667   7.96590  93.47372   7.12659  93.52616   8.13359  98.05911   8.97290
      12  95.81887   9.05717         31.16126  10.490000  98.05911   8.97290  93.52616   8.13359  93.57864   9.14143  98.11159   9.98074
      12  95.87137  10.06542         31.18724  10.490000  98.11159   9.98074  93.57864   9.14143  93.63116  10.15011  98.16411  10.98942
      12  95.92392  11.07452         31.21324  10.490000  98.16411  10.98942  93.63116  10.15011  93.68373  11.15963  98.21668  11.99894
      12  95.97651  12.08447         31.23926  10.490000  98.21668  11.99894  93.68373  11.15963  93.73634  12.16999  98.26929  13.00930
      12  96.02915  13.09525         31.26531  10.490000  98.26929  13.00930  93.73634  12.16999  93.78900  13.18119  98.32195  14.02051
      12  96.08183  14.10687         31.29137  10.490000  98.32195  14.02051  93.78900  13.18119  93.84170  14.19324  98.37465  15.03256
      12  96.13455  15.11934         31.31746  10.490000  98.37465  15.03256  93.84170  14.19324  93.89444  15.20613  98.42740  16.04545
      12  96.18731  16.13266         31.34357  10.490000  98.42740  16.04545  93.89444  15.20613  93.94723  16.21987  98.48018  17.05918
      12  96.24012  17.14682         31.36970  10.490000  98.48018  17.05918  93.94723  16.21987  94.00006  17.23445  98.53302  18.07376
      12  96.29298  18.16182         31.39585  10.490000  98.53302  18.07376  94.00006  17.23445  94.05294  18.24988  98.58589  19.08919
      12  96.34588  19.17767         31.42203  10.490000  98.58589  19.08919  94.05294  18.24988  94.10586  19.26615  98.63881  20.10546
      12  96.39882  20.19437         31.44822  10.490000  98.63881  20.10546  94.10586  19.26615  94.15883  20.28327  98.69178  21.12258
      12  96.45181  21.21191         31.47444  10.490000  98.69178  21.12258  94.15883  20.28327  94.21183  21.30124  98.74479  22.14055
      12  96.50484  22.23030         31.50068  10.490000  98.74479  22.14055  94.21183  21.30124  94.26489  22.32005  98.79784  23.15937
      12  96.55791  23.24954         31.52694  10.490000  98.79784  23.15937  94.26489  22.32005  94.31798  23.33972  98.85094  24.17903
      12  96.61103  24.26964         31.55322  10.490000  98.85094  24.17903  94.31798  23.33972  94.37113  24.36024  98.90408  25.19955
      12  96.66419  25.29058         31.57953  10.490000  98.90408  25.19955  94.37113  24.36024  94.42431  25.38160  98.95726  26.22092
      12  96.71740  26.31237         31.60586  10.490000  98.95726  26.22092  94.42431  25.38160  94.47754  26.40382  99.01049  27.24314
      12  96.77065  27.33502         31.63221  10.490000  99.01049  27.24314  94.47754  26.40382  94.53082  27.42689  99.06377  28.26621
      12  96.82395  28.35851         31.65858  10.490000  99.06377  28.26621  94.53082  27.42689  94.58413  28.45082  99.11709  29.29013
      12  96.87729  29.38286         31.68497  10.490000  99.11709  29.29013  94.58413  28.45082  94.63750  29.47559  99.17045  30.31491
      12  96.93068  30.40807         31.71138  10.490000  99.17045  30.31491  94.63750  29.47559  94.69091  30.50123  99.22386  31.34054
      12  96.98411  31.43413         31.73782  10.490000  99.22386  31.34054  94.69091  30.50123  94.74436  31.52771  99.27731  32.36703
      12  97.03758  32.46104         31.76428  10.490000  99.27731  32.36703  94.74436  31.52771  94.79785  32.55506  99.33081  33.39437
      12  97.09110  33.48881         31.79076  10.490000  99.33081  33.39437  94.79785  32.55506  94.85140  33.58325  99.38435  34.42257
      12  97.14466  34.51744         31.81727  10.490000  99.38435  34.42257  94.85140  33.58325  94.90498  34.61231  99.43793  35.45163
      12  97.19827  35.54693         31.84379  10.490000  99.43793  35.45163  94.90498  34.61231  94.95861  35.64223  99.49156  36.48154
      12  97.25193  36.57727         31.87034  10.490000  99.49156  36.48154  94.95861  35.64223  95.01229  36.67300  99.54524  37.51231
      12  97.30562  37.60847         31.89691  10.490000  99.54524  37.51231  95.01229  36.67300  95.06601  37.70463  99.59896  38.54394
      12  97.35937  38.64053         31.92350  10.490000  99.59896  38.54394  95.06601  37.70463  95.11977  38.73712  99.65273  39.57644
      12  97.41315  39.67346         31.95011  10.490000  99.65273  39.57644  95.11977  38.73712  95.17358  39.77048  99.70653  40.60979
      12  97.46699  40.70724         31.97675  10.490000  99.70653  40.60979  95.17358  39.77048  95.22744  40.80469  99.76039  41.64400
      12  97.52086  41.74189         32.00341  10.490000  99.76039  41.64400  95.22744  40.80469  95.28134  41.83977  99.81429  42.67908
      12  97.57479  42.77739         32.03009  10.490000  99.81429  42.67908  95.28134  41.83977  95.33528  42.87571  99.86823  43.71502
      12  97.62875  43.81377         32.05679  10.490000  99.86823  43.71502  95.33528  42.87571  95.38927  43.91251  99.92222  44.75182
      12  97.68276  44.85100         32.08352  10.490000  99.92222  44.75182  95.38927  43.91251  95.44331  44.95018  99.97626  45.78949
      12  97.73682  45.88910         32.11026  10.490000  99.97626  45.78949  95.44331  44.95018  95.49739  45.98871 100.03034  46.82802
      12  97.79092  46.92807         32.13703  10.490000 100.03034  46.82802  95.49739  45.98871  95.55151  47.02811 100.08446  47.86742
      12  97.84507  47.96790         32.16383  10.490000 100.08446  47.86742  95.55151  47.02811  95.60568  48.06837 100.13863  48.90769
      12  97.89926  49.00860         32.19064  10.490000 100.13863  48.90769  95.60568  48.06837  95.65989  49.10951 100.19285  49.94882
      12  97.95350  50.05016         32.21748  10.490000 100.19285  49.94882  95.65989  49.10951  95.71415  50.15151 100.24711  50.99082
      12  98.00778  51.09260         32.24434  10.490000 100.24711  50.99082  95.71415  50.15151  95.76846  51.19437 100.30141  52.03369
      12  98.06211  52.13590         32.27122  10.490000 100.30141  52.03369  95.76846  51.19437  95.82281  52.23811 100.35576  53.07743
      12  98.11648  53.18007         32.29812  10.490000 100.35576  53.07743  95.82281  52.23811  95.87721  53.28272 100.41016  54.12204
      12  98.17090  54.22512         32.32505  10.490000 100.41016  54.12204  95.87721  53.28272  95.93165  54.32820 100.46460  55.16752
      12  98.22537  55.27103         32.35200  10.490000 100.46460  55.16752  95.93165  54.32820  95.98613  55.37455 100.51909  56.21387
      12  98.27988  56.31782         32.37897  10.490000 100.51909  56.21387  95.98613  55.37455  96.04067  56.42178 100.57362  57.26109
      12  98.33443  57.36548         32.40596  10.490000 100.57362  57.26109  96.04067  56.42178  96.09524  57.46987 100.62820  58.30919
      12  98.38903  58.41401         32.43298  10.490000 100.62820  58.30919  96.09524  57.46987  96.14987  58.51884 100.68282  59.35816
      12  98.44368  59.46342         32.46002  10.490000 100.68282  59.35816  96.14987  58.51884  96.20454  59.56869 100.73749  60.40800
      12  98.49837  60.51370         32.48708  10.490000 100.73749  60.40800  96.20454  59.56869  96.25925  60.61941 100.79220  61.45872
      12  98.55311  61.56486         32.51416  10.490000 100.79220  61.45872  96.25925  60.61941  96.31401  61.67100 100.84696  62.51032
      12  98.60789  62.61690         32.54127  10.490000 100.84696  62.51032  96.31401  61.67100  96.36881  62.72347 100.90177  63.56279
      12  98.66272  63.66981         32.56840  10.490000 100.90177  63.56279  96.36881  62.72347  96.42367  63.77683 100.95662  64.61614
      12  98.71759  64.72360         32.59555  10.490000 100.95662  64.61614  96.42367  63.77683  96.47856  64.83105 101.01151  65.67037
      12  98.77251  65.77826         32.62272  10.490000 101.01151  65.67037  96.47856  64.83105  96.53351  65.88616 101.06646  66.72547
      12  98.82748  66.83381         32.64992  10.490000 101.06646  66.72547  96.53351  65.88616  96.58849  66.94215 101.12145  67.78146
      12  98.88249  67.89024         32.67714  10.490000 101.12145  67.78146  96.58849  66.94215  96.64353  67.99901 101.17648  68.83833
      12  98.93754  68.94755         32.70438  10.490000 101.17648  68.83833  96.64353  67.99901  96.69861  69.05676 101.23156  69.89608
      12  98.99265  70.00573         32.73165  10.490000 101.23156  69.89608  96.69861  69.05676  96.75373  70.11539 101.28669  70.95471
      12  99.04780  71.06481         32.75894  10.490000 101.28669  70.95471  96.75373  70.11539  96.80891  71.17490 101.34186  72.01422
      12  99.10299  72.12476         32.78625  10.490000 101.34186  72.01422  96.80891  71.17490  96.86412  72.23530 101.39708  73.07462
      12  99.15823  73.18560         32.81358  10.490000 101.39708  73.07462  96.86412  72.23530  96.91939  73.29658 101.45234  74.13589
      12  99.21352  74.24732         32.84093  10.490000 101.45234  74.13589  96.91939  73.29658  96.97470  74.35874 101.50765  75.19806
      12  99.26885  75.30993         32.86831  10.490000 101.50765  75.19806  96.97470  74.35874  97.03005  75.42180 101.56301  76.26111
      12  99.32423  76.37342         32.89572  10.490000 101.56301  76.26111  97.03005  75.42180  97.08546  76.48573 101.61841  77.32505
      12  99.37966  77.43780         32.92314  10.490000 101.61841  77.32505  97.08546  76.48573  97.14091  77.55055 101.67386  78.38987
      12  99.43513  78.50307         32.95059  10.490000 101.67386  78.38987  97.14091  77.55055  97.19640  78.61627 101.72935  79.45558
      12  99.49065  79.56922         32.97806  10.490000 101.72935  79.45558  97.19640  78.61627  97.25194  79.68287 101.78489  80.52218
      12  99.54621  80.63627         33.00555  10.490000 101.78489  80.52218  97.25194  79.68287  97.30753  80.75035 101.84048  81.58967
      12  99.60182  81.70420         33.03307  10.490000 101.84048  81.58967  97.30753  80.75035  97.36316  81.81873 101.89611  82.65805
      12  99.65748  82.77303         33.06061  10.490000 101.89611  82.65805  97.36316  81.81873  97.41884  82.88800 101.95179  83.72732
      12  99.71318  83.84274         33.08817  10.490000 101.95179  83.72732  97.41884  82.88800  97.47457  83.95816 102.00752  84.79748
      12  99.76893  84.91335         33.11575  10.490000 102.00752  84.79748  97.47457  83.95816  97.53034  85.02922 102.06329  85.86853
      12  99.82473  85.98485         33.14336  10.490000 102.06329  85.86853  97.53034  85.02922  97.58616  86.10116 102.11911  86.94048
      12  99.88057  87.05724         33.17099  10.490000 102.11911  86.94048  97.58616  86.10116  97.64203  87.17400 102.17498  88.01332
      12  99.93646  88.13053         33.19865  10.490000 102.17498  88.01332  97.64203  87.17400  97.69794  88.24774 102.23089  89.08705
      12  99.99240  89.20471         33.22632  10.490000 102.23089  89.08705  97.69794  88.24774  97.75390  89.32237 102.28685  90.16168
      12 100.04838  90.27978         33.25402  10.490000 102.28685  90.16168  97.75390  89.32237  97.80990  90.39789 102.34286  91.23720
      12 100.10441  91.35576         33.28175  10.490000 102.34286  91.23720  97.80990  90.39789  97.86596  91.47431 102.39891  92.31363
      12 100.16048  92.43263         33.30949  10.490000 102.39891  92.31363  97.86596  91.47431  97.92206  92.55163 102.45501  93.39095
      12 100.21661  93.51040         33.33726  10.490000 102.45501  93.39095  97.92206  92.55163  97.97820  93.62985 102.51115  94.46916
      12 100.27277  94.58906         33.36505  10.490000 102.51115  94.46916  97.97820  93.62985  98.03440  94.70896 102.56735  95.54828
      12 100.32899  95.66863         33.39287  10.490000 102.56735  95.54828  98.03440  94.70896  98.09063  95.78898 102.62359  96.62829
      12 100.38525  96.74910         33.42071  10.490000 102.62359  96.62829  98.09063  95.78898  98.14692  96.86990 102.67987  97.70921
      12 100.44156  97.83046         33.44857  10.490000 102.67987  97.70921  98.14692  96.86990  98.20325  97.95171 102.73621  98.79103
      12 100.49792  98.91273         33.47646  10.490000 102.73621  98.79103  98.20325  97.95171  98.25964  99.03443 102.79259  99.87375
      12 100.55432  99.99590         33.50437  10.490000 102.79259  99.87375  98.25964  99.03443  98.31606 100.11805 102.84901 100.95737
      12 100.61078 101.07997         33.53230  10.490000 102.84901 100.95737  98.31606 100.11805  98.37254 101.20258 102.90549 102.04189
      12 100.66727 102.16495         33.56025  10.490000 102.90549 102.04189  98.37254 101.20258  98.42906 102.28801 102.96201 103.12732
      12 100.72382 103.25083         33.58823  10.490000 102.96201 103.12732  98.42906 102.28801  98.48563 103.37434 103.01858 104.21366
      12 100.78041 104.33762         33.61623  10.490000 103.01858 104.21366  98.48563 103.37434  98.54224 104.46158 103.07520 105.30090
      12 100.83705 105.42531         33.64426  10.490000 103.07520 105.30090  98.54224 104.46158  98.59891 105.54973 103.13186 106.38904
      12 100.89374 106.51391         33.67231  10.490000 103.13186 106.38904  98.59891 105.54973  98.65562 106.63878 103.18857 107.47810
      12 100.95047 107.60342         33.70038  10.490000 103.18857 107.47810  98.65562 106.63878  98.71237 107.72875 103.24533 108.56806
      12 101.00725 108.69384         33.72847  10.490000 103.24533 108.56806  98.71237 107.72875  98.76918 108.81962 103.30213 109.65893
      12 101.06408 109.78516         33.75659  10.490000 103.30213 109.65893  98.76918 108.81962  98.82603 109.91140 103.35898 110.75071
      12 101.12096 110.87740         33.78474  10.490000 103.35898 110.75071  98.82603 109.91140  98.88293 111.00408 103.41588 111.84340
      12 101.17788 111.97054         33.81290  10.490000 103.41588 111.84340  98.88293 111.00408  98.93988 112.09769 103.47283 112.93700
      12 101.23485 113.06460         33.84109  10.490000 103.47283 112.93700  98.93988 112.09769  98.99687 113.19220 103.52982 114.03151
      12 101.29187 114.15957         33.86930  10.490000 103.52982 114.03151  98.99687 113.19220  99.05391 114.28762 103.58687 115.12694
      12 101.34894 115.25545         33.89754  10.490000 103.58687 115.12694  99.05391 114.28762  99.11100 115.38396 103.64396 116.22328
      12 101.40605 116.35224         33.92580  10.490000 103.64396 116.22328  99.11100 115.38396  99.16814 116.48121 103.70109 117.32053
      12 101.46321 117.44995         33.95408  10.490000 103.70109 117.32053  99.16814 116.48121  99.22533 117.57938 103.75828 118.41870
      12 101.52042 118.54858         33.98239  10.490000 103.75828 118.41870  99.22533 117.57938  99.28256 118.67846 103.81551 119.51778
      12 101.57767 119.64812         34.01072  10.490000 103.81551 119.51778  99.28256 118.67846  99.33984 119.77846 103.87279 120.61778
      12 101.63498 120.74858         34.03907  10.490000 103.87279 120.61778  99.33984 119.77846  99.39717 120.87938 103.93012 121.71869
      12 101.69233 121.84995         34.06745  10.490000 103.93012 121.71869  99.39717 120.87938  99.45454 121.98121 103.98749 122.82053
      12 101.74973 122.95224         34.09585  10.490000 103.98749 122.82053  99.45454 121.98121  99.51197 123.08396 104.04492 123.92328
      12 101.80718 124.05546         34.12428  10.490000 104.04492 123.92328  99.51197 123.08396  99.56944 124.18764 104.10239 125.02695
      12 101.86467 125.15959         34.15273  10.490000 104.10239 125.02695  99.56944 124.18764  99.62696 125.29223 104.15991 126.13154
      12 101.92222 126.26464         34.18120  10.490000 104.15991 126.13154  99.62696 125.29223  99.68452 126.39774 104.21748 127.23705
      12 101.97981 127.37061         34.20970  10.490000 104.21748 127.23705  99.68452 126.39774  99.74214 127.50417 104.27509 128.34349
      11 115.08127   0.72097         33.78474  11.710000 117.37187   0.68354 112.72073  -0.28051 112.79067   0.75841 117.44181   1.72246
      11 115.15124   1.76033         33.81290  11.710000 117.44181   1.72246 112.79067   0.75841 112.86067   1.79820 117.51181   2.76226
      11 115.22127   2.80056         33.84109  11.710000 117.51181   2.76226 112.86067   1.79820 112.93072   2.83886 117.58186   3.80292
      11 115.29135   3.84165         33.86930  11.710000 117.58186   3.80292 112.93072   2.83886 113.00084   3.88039 117.65198   4.84444
      11 115.36149   4.88362         33.89754  11.710000 117.65198   4.84444 113.00084   3.88039 113.07101   4.92279 117.72215   5.88684
      11 115.43169   5.92645         33.92580  11.710000 117.72215   5.88684 113.07101   4.92279 113.14124   5.96605 117.79238   6.93010
      11 115.50195   6.97014         33.95408  11.710000 117.79238   6.93010 113.14124   5.96605 113.21153   7.01019 117.86267   7.97424
      11 115.57227   8.01471         33.98239  11.710000 117.86267   7.97424 113.21153   7.01019 113.28188   8.05519 117.93302   9.01924
      11 115.64265   9.06015         34.01072  11.710000 117.93302   9.01924 113.28188   8.05519 113.35228   9.10107 118.00342  10.06512
      11 115.71308  10.10647         34.03907  11.710000 118.00342  10.06512 113.35228   9.10107 113.42275  10.14781 118.07389  11.11187
      11 115.78358  11.15365         34.06745  11.710000 118.07389  11.11187 113.42275  10.14781 113.49327  11.19544 118.14441  12.15949
      11 115.85413  12.20171         34.09585  11.710000 118.14441  12.15949 113.49327  11.19544 113.56385  12.24393 118.21499  13.20798
      11 115.92474  13.25064         34.12428  11.710000 118.21499  13.20798 113.56385  12.24393 113.63450  13.29330 118.28564  14.25735
      11 115.99542  14.30044         34.15273  11.710000 118.28564  14.25735 113.63450  13.29330 113.70520  14.34354 118.35634  15.30759
      11 116.06615  15.35112         34.18120  11.710000 118.35634  15.30759 113.70520  14.34354 113.77595  15.39466 118.42710  16.35871
      11 116.13693  16.40268         34.20970  11.710000 118.42710  16.35871 113.77595  15.39466 113.84677  16.44665 118.49791  17.41070
      11 116.20778  17.45511         34.23822  11.710000 118.49791  17.41070 113.84677  16.44665 113.91765  17.49952 118.56879  18.46358
      11 116.27869  18.50843         34.26676  11.710000 118.56879  18.46358 113.91765  17.49952 113.98859  18.55327 118.63973  19.51733
      11 116.34965  19.56261         34.29533  11.710000 118.63973  19.51733 113.98859  18.55327 114.05958  19.60790 118.71072  20.57195
      11 116.42068  20.61768         34.32392  11.710000 118.71072  20.57195 114.05958  19.60790 114.13064  20.66341 118.78178  21.62746
      11 116.49176  21.67363         34.35253  11.710000 118.78178  21.62746 114.13064  20.66341 114.20175  21.71980 118.85289  22.68385
      11 116.56291  22.73046         34.38117  11.710000 118.85289  22.68385 114.20175  21.71980 114.27292  22.77707 118.92406  23.74112
      11 116.63411  23.78817         34.40983  11.710000 118.92406  23.74112 114.27292  22.77707 114.34416  23.83521 118.99530  24.79927
      11 116.70537  24.84676         34.43852  11.710000 118.99530  24.79927 114.34416  23.83521 114.41545  24.89425 119.06659  25.85830
      11 116.77669  25.90623         34.46723  11.710000 119.06659  25.85830 114.41545  24.89425 114.48680  25.95416 119.13794  26.91821
      11 116.84808  26.96659         34.49597  11.710000 119.13794  26.91821 114.48680  25.95416 114.55821  27.01496 119.20935  27.97901
      11 116.91952  28.02783         34.52473  11.710000 119.20935  27.97901 114.55821  27.01496 114.62968  28.07664 119.28082  29.04069
      11 116.99102  29.08995         34.55351  11.710000 119.28082  29.04069 114.62968  28.07664 114.70121  29.13921 119.35235  30.10326
      11 117.06258  30.15296         34.58231  11.710000 119.35235  30.10326 114.70121  29.13921 114.77280  30.20266 119.42394  31.16671
      11 117.13420  31.21686         34.61115  11.710000 119.42394  31.16671 114.77280  30.20266 114.84445  31.26700 119.49559  32.23105
      11 117.20588  32.28164         34.64000  11.710000 119.49559  32.23105 114.84445  31.26700 114.91616  32.33223 119.56730  33.29628
      11 117.27761  33.34731         34.66888  11.710000 119.56730  33.29628 114.91616  32.33223 114.98793  33.39834 119.63907  34.36240
      11 117.34941  34.41387         34.69778  11.710000 119.63907  34.36240 114.98793  33.39834 115.05976  34.46535 119.71090  35.42940
      11 117.42127  35.48132         34.72671  11.710000 119.71090  35.42940 115.05976  34.46535 115.13165  35.53324 119.78279  36.49729
      11 117.49319  36.54966         34.75566  11.710000 119.78279  36.49729 115.13165  35.53324 115.20359  36.60203 119.85473  37.56608
      11 117.56517  37.61889         34.78463  11.710000 119.85473  37.56608 115.20359  36.60203 115.27560  37.67170 119.92674  38.63575
      11 117.63721  38.68901         34.81363  11.710000 119.92674  38.63575 115.27560  37.67170 115.34767  38.74227 119.99881  39.70632
      11 117.70931  39.76002         34.84266  11.710000 119.99881  39.70632 115.34767  38.74227 115.41980  39.81373 120.07094  40.77778
      11 117.78146  40.83193         34.87170  11.710000 120.07094  40.77778 115.41980  39.81373 115.49199  40.88608 120.14313  41.85013
      11 117.85368  41.90473         34.90078  11.710000 120.14313  41.85013 115.49199  40.88608 115.56424  41.95933 120.21538  42.92338
      11 117.92596  42.97842         34.92987  11.710000 120.21538  42.92338 115.56424  41.95933 115.63655  43.03347 120.28769  43.99752
      11 117.99830  44.05301         34.95899  11.710000 120.28769  43.99752 115.63655  43.03347 115.70892  44.10851 120.36006  45.07256
      11 118.07070  45.12850         34.98814  11.710000 120.36006  45.07256 115.70892  44.10851 115.78135  45.18444 120.43249  46.14849
      11 118.14316  46.20488         35.01731  11.710000 120.43249  46.14849 115.78135  45.18444 115.85384  46.26127 120.50498  47.22532
      11 118.21568  47.28216         35.04650  11.710000 120.50498  47.22532 115.85384  46.26127 115.92639  47.33900 120.57753  48.30305
      11 118.28826  48.36034         35.07572  11.710000 120.57753  48.30305 115.92639  47.33900 115.99900  48.41762 120.65014  49.38167
      11 118.36090  49.43941         35.10496  11.710000 120.65014  49.38167 115.99900  48.41762 116.07167  49.49715 120.72281  50.46120
      11 118.43361  50.51939         35.13423  11.710000 120.72281  50.46120 116.07167  49.49715 116.14440  50.57757 120.79554  51.54163
      11 118.50637  51.60026         35.16352  11.710000 120.79554  51.54163 116.14440  50.57757 116.21719  51.65890 120.86833  52.62295
      11 118.57919  52.68204         35.19283  11.710000 120.86833  52.62295 116.21719  51.65890 116.29005  52.74113 120.94119  53.70518
      11 118.65207  53.76472         35.22217  11.710000 120.94119  53.70518 116.29005  52.74113 116.36296  53.82426 121.01410  54.78831
      11 118.72502  54.84830         35.25154  11.710000 121.01410  54.78831 116.36296  53.82426 116.43594  54.90829 121.08708  55.87234
      11 118.79802  55.93279         35.28092  11.710000 121.08708  55.87234 116.43594  54.90829 116.50897  55.99323 121.16011  56.95728
      11 118.87109  57.01817         35.31034  11.710000 121.16011  56.95728 116.50897  55.99323 116.58207  57.07907 121.23321  58.04312
      11 118.94422  58.10447         35.33977  11.710000 121.23321  58.04312 116.58207  57.07907 116.65523  58.16582 121.30637  59.12987
      11 119.01741  59.19167         35.36924  11.710000 121.30637  59.12987 116.65523  58.16582 116.72845  59.25347 121.37959  60.21752
      11 119.09066  60.27977         35.39872  11.710000 121.37959  60.21752 116.72845  59.25347 116.80173  60.34203 121.45287  61.30608
      11 119.16397  61.36879         35.42823  11.710000 121.45287  61.30608 116.80173  60.34203 116.87507  61.43149 121.52621  62.39555
      11 119.23734  62.45871         35.45777  11.710000 121.52621  62.39555 116.87507  61.43149 116.94847  62.52187 121.59961  63.48592
      11 119.31077  63.54954         35.48733  11.710000 121.59961  63.48592 116.94847  62.52187 117.02193  63.61315 121.67307  64.57721
      11 119.38426  64.64128         35.51692  11.710000 121.67307  64.57721 117.02193  63.61315 117.09546  64.70535 121.74660  65.66940
      11 119.45782  65.73393         35.54653  11.710000 121.74660  65.66940 117.09546  64.70535 117.16904  65.79845 121.82018  66.76250
      11 119.53144  66.82749         35.57616  11.710000 121.82018  66.76250 117.16904  65.79845 117.24269  66.89247 121.89383  67.85652
      11 119.60511  67.92196         35.60582  11.710000 121.89383  67.85652 117.24269  66.89247 117.31640  67.98740 121.96754  68.95145
      11 119.67885  69.01734         35.63550  11.710000 121.96754  68.95145 117.31640  67.98740 117.39017  69.08324 122.04131  70.04729
      11 119.75265  70.11364         35.66521  11.710000 122.04131  70.04729 117.39017  69.08324 117.46400  70.17999 122.11514  71.14404
      11 119.82651  71.21085         35.69495  11.710000 122.11514  71.14404 117.46400  70.17999 117.53789  71.27766 122.18903  72.24171
      11 119.90044  72.30898         35.72470  11.710000 122.18903  72.24171 117.53789  71.27766 117.61185  72.37624 122.26299  73.34029
      11 119.97442  73.40802         35.75449  11.710000 122.26299  73.34029 117.61185  72.37624 117.68586  73.47574 122.33700  74.43979
      11 120.04847  74.50798         35.78429  11.710000 122.33700  74.43979 117.68586  73.47574 117.75994  74.57616 122.41108  75.54021
      11 120.12258  75.60885         35.81413  11.710000 122.41108  75.54021 117.75994  74.57616 117.83408  75.67749 122.48522  76.64154
      11 120.19675  76.71064         35.84398  11.710000 122.48522  76.64154 117.83408  75.67749 117.90828  76.77974 122.55942  77.74380
      11 120.27098  77.81336         35.87387  11.710000 122.55942  77.74380 117.90828  76.77974 117.98254  77.88291 122.63368  78.84697
      11 120.34528  78.91699         35.90377  11.710000 122.63368  78.84697 117.98254  77.88291 118.05687  78.98701 122.70801  79.95106
      11 120.41963  80.02154         35.93371  11.710000 122.70801  79.95106 118.05687  78.98701 118.13126  80.09202 122.78240  81.05607
      11 120.49405  81.12701         35.96366  11.710000 122.78240  81.05607 118.13126  80.09202 118.20571  81.19795 122.85685  82.16200
      11 120.56853  82.23340         35.99365  11.710000 122.85685  82.16200 118.20571  81.19795 118.28022  82.30480 122.93136  83.26885
      11 120.64307  83.34072         36.02365  11.710000 122.93136  83.26885 118.28022  82.30480 118.35479  83.41258 123.00593  84.37663
      11 120.71768  84.44896         36.05369  11.710000 123.00593  84.37663 118.35479  83.41258 118.42943  84.52128 123.08057  85.48533
      11 120.79235  85.55812         36.08374  11.710000 123.08057  85.48533 118.42943  84.52128 118.50412  85.63090 123.15526  86.59496
      11 120.86707  86.66820         36.11382  11.710000 123.15526  86.59496 118.50412  85.63090 118.57888  86.74145 123.23002  87.70551
      11 120.94187  87.77922         36.14393  11.710000 123.23002  87.70551 118.57888  86.74145 118.65371  87.85293 123.30485  88.81698
      11 121.01672  88.89116         36.17406  11.710000 123.30485  88.81698 118.65371  87.85293 118.72859  88.96533 123.37973  89.92938
      11 121.09163  90.00402         36.20422  11.710000 123.37973  89.92938 118.72859  88.96533 118.80354  90.07866 123.45468  91.04271
      11 121.16661  91.11782         36.23441  11.710000 123.45468  91.04271 118.80354  90.07866 118.87855  91.19292 123.52969  92.15697
      11 121.24165  92.23254         36.26461  11.710000 123.52969  92.15697 118.87855  91.19292 118.95362  92.30811 123.60476  93.27216
      11 121.31676  93.34819         36.29485  11.710000 123.60476  93.27216 118.95362  92.30811 119.02875  93.42422 123.67990  94.38827
      11 121.39192  94.46477         36.32510  11.710000 123.67990  94.38827 119.02875  93.42422 119.10395  94.54127 123.75509  95.50532
      11 121.46715  95.58228         36.35539  11.710000 123.75509  95.50532 119.10395  94.54127 119.17921  95.65925 123.83035  96.62330
      11 121.54244  96.70073         36.38570  11.710000 123.83035  96.62330 119.17921  95.65925 119.25454  96.77816 123.90568  97.74221
      11 121.61780  97.82011         36.41603  11.710000 123.90568  97.74221 119.25454  96.77816 119.32992  97.89800 123.98106  98.86205
      11 121.69322  98.94042         36.44639  11.710000 123.98106  98.86205 119.32992  97.89800 119.40537  99.01878 124.05651  99.98283
      11 121.76870 100.06166         36.47677  11.710000 124.05651  99.98283 119.40537  99.01878 119.48088 100.14049 124.13202 101.10454
      11 121.84424 101.18384         36.50718  11.710000 124.13202 101.10454 119.48088 100.14049 119.55646 101.26314 124.20760 102.22719
      11 121.91984 102.30695         36.53762  11.710000 124.20760 102.22719 119.55646 101.26314 119.63209 102.38672 124.28323 103.35077
      11 121.99551 103.43100         36.56808  11.710000 124.28323 103.35077 119.63209 102.38672 119.70779 103.51124 124.35893 104.47529
      11 122.07125 104.55599         36.59857  11.710000 124.35893 104.47529 119.70779 103.51124 119.78356 104.63669 124.43470 105.60074
      11 122.14704 105.68192         36.62908  11.710000 124.43470 105.60074 119.78356 104.63669 119.85938 105.76309 124.51052 106.72714
      11 122.22290 106.80878         36.65962  11.710000 124.51052 106.72714 119.85938 105.76309 119.93527 106.89042 124.58641 107.85447
      11 122.29882 107.93658         36.69018  11.710000 124.58641 107.85447 119.93527 106.89042 120.01123 108.01870 124.66237 108.98275
      11 122.37480 109.06533         36.72077  11.710000 124.66237 108.98275 120.01123 108.01870 120.08724 109.14791 124.73838 110.11196
      11 122.45085 110.19501         36.75138  11.710000 124.73838 110.11196 120.08724 109.14791 120.16332 110.27807 124.81446 111.24212
      11 122.52696 111.32564         36.78202  11.710000 124.81446 111.24212 120.16332 110.27807 120.23947 111.40916 124.89061 112.37321
      11 122.60314 112.45721         36.81268  11.710000 124.89061 112.37321 120.23947 111.40916 120.31567 112.54120 124.96681 113.50526
      11 122.67938 113.58972         36.84337  11.710000 124.96681 113.50526 120.31567 112.54120 120.39194 113.67419 125.04308 114.63824
      11 122.75568 114.72318         36.87409  11.710000 125.04308 114.63824 120.39194 113.67419 120.46828 114.80812 125.11942 115.77217
      11 122.83205 115.85758         36.90483  11.710000 125.11942 115.77217 120.46828 114.80812 120.54467 115.94299 125.19581 116.90704
      11 122.90848 116.99293         36.93560  11.710000 125.19581 116.90704 120.54467 115.94299 120.62114 117.07881 125.27228 118.04286
      11 122.98497 118.12922         36.96639  11.710000 125.27228 118.04286 120.62114 117.07881 120.69766 118.21558 125.34880 119.17963
      11 123.06153 119.26646         36.99721  11.710000 125.34880 119.17963 120.69766 118.21558 120.77425 119.35330 125.42539 120.31735
      11 123.13815 120.40465         37.02805  11.710000 125.42539 120.31735 120.77425 119.35330 120.85090 120.49196 125.50204 121.45601
      11 123.21483 121.54379         37.05892  11.710000 125.50204 121.45601 120.85090 120.49196 120.92762 121.63157 125.57876 122.59562
      11 123.29158 122.68388         37.08982  11.710000 125.57876 122.59562 120.92762 121.63157 121.00440 122.77214 125.65554 123.73619
      11 123.36839 123.82492         37.12074  11.710000 125.65554 123.73619 121.00440 122.77214 121.08124 123.91365 125.73238 124.87770
      11 123.44527 124.96691         37.15168  11.710000 125.73238 124.87770 121.08124 123.91365 121.15815 125.05612 125.80929 126.02017
      11 123.52221 126.10985         37.18266  11.710000 125.80929 126.02017 121.15815 125.05612 121.23513 126.19953 125.88627 127.16358
      11 123.59921 127.25374         37.21365  11.710000 125.88627 127.16358 121.23513 126.19953 121.31216 127.34390 125.96330 128.30796
