\wavsamp version 5.1 (Wed Apr 20 08:45:04 PDT 2005)
\processing time 13:15:57 PST 05/02/2005
\character channelID = 3
| order |x_center |y_center |   wavelength   |  angle   |   x0    |   y0    |   x1    |   y1    |   x2    |   y2    |   x3    |   y3    |
| int   |  real   |  real   |    real        |   real   |  real   |  real   |  real   |  real   |  real   |  real   |  real   |  real   |
      20   7.71036  -0.06412         18.74110   0.700000  10.05714  -0.51129   5.39082  -0.56830   5.36357   0.38327  10.02989   0.44028
      20   7.68310   0.88829         18.75672   0.700000  10.02989   0.44028   5.36357   0.38327   5.33630   1.33652  10.00262   1.39353
      20   7.65581   1.84238         18.77236   0.700000  10.00262   1.39353   5.33630   1.33652   5.30901   2.29145   9.97532   2.34846
      20   7.62851   2.79815         18.78801   0.700000   9.97532   2.34846   5.30901   2.29145   5.28169   3.24805   9.94801   3.30507
      20   7.60118   3.75559         18.80367   0.700000   9.94801   3.30507   5.28169   3.24805   5.25435   4.20634   9.92067   4.26335
      20   7.57383   4.71472         18.81935   0.700000   9.92067   4.26335   5.25435   4.20634   5.22698   5.16632   9.89330   5.22333
      20   7.54645   5.67554         18.83504   0.700000   9.89330   5.22333   5.22698   5.16632   5.19960   6.12798   9.86592   6.18499
      20   7.51905   6.63805         18.85074   0.700000   9.86592   6.18499   5.19960   6.12798   5.17219   7.09133   9.83851   7.14835
      20   7.49163   7.60225         18.86646   0.700000   9.83851   7.14835   5.17219   7.09133   5.14476   8.05638   9.81108   8.11339
      20   7.46419   8.56815         18.88219   0.700000   9.81108   8.11339   5.14476   8.05638   5.11730   9.02313   9.78362   9.08014
      20   7.43672   9.53574         18.89793   0.700000   9.78362   9.08014   5.11730   9.02313   5.08983   9.99157   9.75614  10.04858
      20   7.40924  10.50504         18.91368   0.700000   9.75614  10.04858   5.08983   9.99157   5.06233  10.96172   9.72864  11.01873
      20   7.38172  11.47604         18.92945   0.700000   9.72864  11.01873   5.06233  10.96172   5.03480  11.93357   9.70112  11.99059
      20   7.35419  12.44875         18.94523   0.700000   9.70112  11.99059   5.03480  11.93357   5.00726  12.90714   9.67358  12.96415
      20   7.32663  13.42317         18.96103   0.700000   9.67358  12.96415   5.00726  12.90714   4.97969  13.88241   9.64601  13.93942
      20   7.29905  14.39930         18.97683   0.700000   9.64601  13.93942   4.97969  13.88241   4.95210  14.85940   9.61841  14.91641
      20   7.27145  15.37715         18.99265   0.700000   9.61841  14.91641   4.95210  14.85940   4.92448  15.83810   9.59080  15.89512
      20   7.24382  16.35671         19.00849   0.700000   9.59080  15.89512   4.92448  15.83810   4.89684  16.81853   9.56316  16.87554
      20   7.21617  17.33800         19.02434   0.700000   9.56316  16.87554   4.89684  16.81853   4.86918  17.80068   9.53550  17.85769
      20   7.18850  18.32101         19.04020   0.700000   9.53550  17.85769   4.86918  17.80068   4.84150  18.78456   9.50782  18.84157
      20   7.16080  19.30575         19.05607   0.700000   9.50782  18.84157   4.84150  18.78456   4.81379  19.77016   9.48011  19.82718
      20   7.13308  20.29223         19.07196   0.700000   9.48011  19.82718   4.81379  19.77016   4.78606  20.75750   9.45238  20.81451
      20   7.10534  21.28043         19.08786   0.700000   9.45238  20.81451   4.78606  20.75750   4.75831  21.74658   9.42462  21.80359
      20   7.07758  22.27037         19.10377   0.700000   9.42462  21.80359   4.75831  21.74658   4.73053  22.73739   9.39685  22.79440
      20   7.04979  23.26205         19.11970   0.700000   9.39685  22.79440   4.73053  22.73739   4.70273  23.72994   9.36905  23.78695
      20   7.02198  24.25548         19.13564   0.700000   9.36905  23.78695   4.70273  23.72994   4.67491  24.72424   9.34122  24.78125
      20   6.99414  25.25065         19.15159   0.700000   9.34122  24.78125   4.67491  24.72424   4.64706  25.72028   9.31338  25.77729
      20   6.96628  26.24757         19.16755   0.700000   9.31338  25.77729   4.64706  25.72028   4.61919  26.71807   9.28551  26.77509
      20   6.93840  27.24624         19.18353   0.700000   9.28551  26.77509   4.61919  26.71807   4.59130  27.71762   9.25762  27.77463
      20   6.91050  28.24666         19.19953   0.700000   9.25762  27.77463   4.59130  27.71762   4.56338  28.71892   9.22970  28.77594
      20   6.88257  29.24885         19.21553   0.700000   9.22970  28.77594   4.56338  28.71892   4.53544  29.72199   9.20176  29.77900
      20   6.85462  30.25279         19.23155   0.700000   9.20176  29.77900   4.53544  29.72199   4.50748  30.72681   9.17380  30.78382
      20   6.82665  31.25850         19.24759   0.700000   9.17380  30.78382   4.50748  30.72681   4.47950  31.73340   9.14581  31.79041
      20   6.79865  32.26597         19.26363   0.700000   9.14581  31.79041   4.47950  31.73340   4.45149  32.74176   9.11780  32.79877
      20   6.77063  33.27521         19.27969   0.700000   9.11780  32.79877   4.45149  32.74176   4.42345  33.75189   9.08977  33.80890
      20   6.74259  34.28623         19.29576   0.700000   9.08977  33.80890   4.42345  33.75189   4.39540  34.76379   9.06172  34.82080
      20   6.71452  35.29902         19.31185   0.700000   9.06172  34.82080   4.39540  34.76379   4.36732  35.77747   9.03364  35.83448
      20   6.68643  36.31359         19.32795   0.700000   9.03364  35.83448   4.36732  35.77747   4.33922  36.79293   9.00553  36.84994
      20   6.65831  37.32994         19.34406   0.700000   9.00553  36.84994   4.33922  36.79293   4.31109  37.81017   8.97741  37.86719
      20   6.63017  38.34808         19.36019   0.700000   8.97741  37.86719   4.31109  37.81017   4.28294  38.82920   8.94926  38.88622
      20   6.60201  39.36800         19.37633   0.700000   8.94926  38.88622   4.28294  38.82920   4.25477  39.85002   8.92109  39.90704
      20   6.57383  40.38972         19.39249   0.700000   8.92109  39.90704   4.25477  39.85002   4.22657  40.87264   8.89289  40.92965
      20   6.54562  41.41323         19.40865   0.700000   8.89289  40.92965   4.22657  40.87264   4.19835  41.89704   8.86467  41.95406
      20   6.51739  42.43853         19.42483   0.700000   8.86467  41.95406   4.19835  41.89704   4.17011  42.92325   8.83643  42.98026
      20   6.48913  43.46564         19.44103   0.700000   8.83643  42.98026   4.17011  42.92325   4.14184  43.95126   8.80816  44.00827
      20   6.46086  44.49455         19.45723   0.700000   8.80816  44.00827   4.14184  43.95126   4.11355  44.98107   8.77987  45.03808
      20   6.43255  45.52527         19.47346   0.700000   8.77987  45.03808   4.11355  44.98107   4.08524  46.01269   8.75155  46.06970
      20   6.40423  46.55779         19.48969   0.700000   8.75155  46.06970   4.08524  46.01269   4.05690  47.04612   8.72322  47.10313
      20   6.37588  47.59213         19.50594   0.700000   8.72322  47.10313   4.05690  47.04612   4.02854  48.08137   8.69486  48.13838
      20   6.34750  48.62828         19.52220   0.700000   8.69486  48.13838   4.02854  48.08137   4.00015  49.11843   8.66647  49.17544
      20   6.31911  49.66626         19.53848   0.700000   8.66647  49.17544   4.00015  49.11843   3.97174  50.15731   8.63806  50.21432
      20   6.29069  50.70605         19.55476   0.700000   8.63806  50.21432   3.97174  50.15731   3.94331  51.19802   8.60963  51.25503
      20   6.26224  51.74767         19.57107   0.700000   8.60963  51.25503   3.94331  51.19802   3.91486  52.24055   8.58117  52.29756
      20   6.23377  52.79112         19.58738   0.700000   8.58117  52.29756   3.91486  52.24055   3.88638  53.28491   8.55269  53.34192
      20   6.20528  53.83640         19.60371   0.700000   8.55269  53.34192   3.88638  53.28491   3.85787  54.33111   8.52419  54.38812
      20   6.17677  54.88351         19.62006   0.700000   8.52419  54.38812   3.85787  54.33111   3.82934  55.37914   8.49566  55.43615
      20   6.14823  55.93246         19.63641   0.700000   8.49566  55.43615   3.82934  55.37914   3.80079  56.42901   8.46711  56.48602
      20   6.11967  56.98325         19.65278   0.700000   8.46711  56.48602   3.80079  56.42901   3.77222  57.48072   8.43854  57.53773
      20   6.09108  58.03588         19.66917   0.700000   8.43854  57.53773   3.77222  57.48072   3.74362  58.53428   8.40994  58.59129
      20   6.06247  59.09036         19.68557   0.700000   8.40994  58.59129   3.74362  58.53428   3.71500  59.58968   8.38132  59.64669
      20   6.03383  60.14670         19.70198   0.700000   8.38132  59.64669   3.71500  59.58968   3.68635  60.64694   8.35267  60.70395
      20   6.00517  61.20488         19.71840   0.700000   8.35267  60.70395   3.68635  60.64694   3.65768  61.70605   8.32400  61.76306
      20   5.97649  62.26492         19.73484   0.700000   8.32400  61.76306   3.65768  61.70605   3.62899  62.76702   8.29530  62.82403
      20   5.94779  63.32682         19.75129   0.700000   8.29530  62.82403   3.62899  62.76702   3.60027  63.82985   8.26659  63.88686
      20   5.91906  64.39058         19.76776   0.700000   8.26659  63.88686   3.60027  63.82985   3.57153  64.89455   8.23784  64.95156
      20   5.89030  65.45621         19.78424   0.700000   8.23784  64.95156   3.57153  64.89455   3.54276  65.96111   8.20908  66.01812
      20   5.86152  66.52371         19.80073   0.700000   8.20908  66.01812   3.54276  65.96111   3.51397  67.02954   8.18029  67.08656
      20   5.83272  67.59308         19.81724   0.700000   8.18029  67.08656   3.51397  67.02954   3.48516  68.09985   8.15147  68.15686
      20   5.80390  68.66433         19.83376   0.700000   8.15147  68.15686   3.48516  68.09985   3.45632  69.17203   8.12264  69.22905
      20   5.77505  69.73745         19.85030   0.700000   8.12264  69.22905   3.45632  69.17203   3.42746  70.24610   8.09377  70.30311
      20   5.74617  70.81246         19.86685   0.700000   8.09377  70.30311   3.42746  70.24610   3.39857  71.32205   8.06489  71.37906
      20   5.71727  71.88935         19.88341   0.700000   8.06489  71.37906   3.39857  71.32205   3.36966  72.39988   8.03598  72.45689
      20   5.68835  72.96813         19.89998   0.700000   8.03598  72.45689   3.36966  72.39988   3.34073  73.47961   8.00704  73.53662
      20   5.65941  74.04880         19.91658   0.700000   8.00704  73.53662   3.34073  73.47961   3.31177  74.56122   7.97809  74.61824
      20   5.63043  75.13136         19.93318   0.700000   7.97809  74.61824   3.31177  74.56122   3.28278  75.64474   7.94910  75.70175
      20   5.60144  76.21583         19.94980   0.700000   7.94910  75.70175   3.28278  75.64474   3.25378  76.73015   7.92010  76.78717
      20   5.57242  77.30219         19.96643   0.700000   7.92010  76.78717   3.25378  76.73015   3.22475  77.81747   7.89107  77.87448
      20   5.54338  78.39046         19.98307   0.700000   7.89107  77.87448   3.22475  77.81747   3.19569  78.90669   7.86201  78.96370
      20   5.51431  79.48064         19.99973   0.700000   7.86201  78.96370   3.19569  78.90669   3.16661  79.99782   7.83293  80.05484
      20   5.48522  80.57273         20.01641   0.700000   7.83293  80.05484   3.16661  79.99782   3.13751  81.09087   7.80383  81.14788
      20   5.45610  81.66673         20.03309   0.700000   7.80383  81.14788   3.13751  81.09087   3.10838  82.18583   7.77470  82.24284
      20   5.42696  82.76265         20.04980   0.700000   7.77470  82.24284   3.10838  82.18583   3.07923  83.28271   7.74555  83.33972
      20   5.39780  83.86049         20.06651   0.700000   7.74555  83.33972   3.07923  83.28271   3.05005  84.38151   7.71637  84.43852
      20   5.36861  84.96026         20.08324   0.700000   7.71637  84.43852   3.05005  84.38151   3.02085  85.48224   7.68717  85.53925
      20   5.33940  86.06195         20.09998   0.700000   7.68717  85.53925   3.02085  85.48224   2.99163  86.58490   7.65794  86.64191
      20   5.31016  87.16557         20.11674   0.700000   7.65794  86.64191   2.99163  86.58490   2.96238  87.68949   7.62870  87.74650
      20   5.28090  88.27113         20.13351   0.700000   7.62870  87.74650   2.96238  87.68949   2.93310  88.79601   7.59942  88.85302
      20   5.25161  89.37862         20.15030   0.700000   7.59942  88.85302   2.93310  88.79601   2.90380  89.90448   7.57012  89.96149
      20   5.22230  90.48806         20.16709   0.700000   7.57012  89.96149   2.90380  89.90448   2.87448  91.01488   7.54080  91.07189
      20   5.19297  91.59944         20.18391   0.700000   7.54080  91.07189   2.87448  91.01488   2.84513  92.12723   7.51145  92.18425
      20   5.16361  92.71276         20.20073   0.700000   7.51145  92.18425   2.84513  92.12723   2.81576  93.24153   7.48208  93.29855
      20   5.13422  93.82804         20.21758   0.700000   7.48208  93.29855   2.81576  93.24153   2.78637  94.35779   7.45269  94.41480
      20   5.10482  94.94527         20.23443   0.700000   7.45269  94.41480   2.78637  94.35779   2.75695  95.47600   7.42326  95.53301
      20   5.07538  96.06446         20.25130   0.700000   7.42326  95.53301   2.75695  95.47600   2.72750  96.59616   7.39382  96.65318
      20   5.04593  97.18561         20.26818   0.700000   7.39382  96.65318   2.72750  96.59616   2.69803  97.71829   7.36435  97.77531
      20   5.01644  98.30872         20.28508   0.700000   7.36435  97.77531   2.69803  97.71829   2.66854  98.84239   7.33486  98.89940
      20   4.98694  99.43380         20.30199   0.700000   7.33486  98.89940   2.66854  98.84239   2.63902  99.96845   7.30534 100.02547
      20   4.95741 100.56085         20.31892   0.700000   7.30534 100.02547   2.63902  99.96845   2.60948 101.09649   7.27579 101.15350
      20   4.92785 101.68987         20.33586   0.700000   7.27579 101.15350   2.60948 101.09649   2.57991 102.22650   7.24623 102.28351
      20   4.89827 102.82087         20.35281   0.700000   7.24623 102.28351   2.57991 102.22650   2.55031 103.35849   7.21663 103.41551
      20   4.86867 103.95386         20.36978   0.700000   7.21663 103.41551   2.55031 103.35849   2.52070 104.49247   7.18702 104.54948
      20   4.83904 105.08882         20.38676   0.700000   7.18702 104.54948   2.52070 104.49247   2.49106 105.62843   7.15737 105.68544
      20   4.80938 106.22578         20.40376   0.700000   7.15737 105.68544   2.49106 105.62843   2.46139 106.76637   7.12771 106.82339
      20   4.77970 107.36472         20.42077   0.700000   7.12771 106.82339   2.46139 106.76637   2.43170 107.90632   7.09802 107.96333
      20   4.75000 108.50566         20.43779   0.700000   7.09802 107.96333   2.43170 107.90632   2.40198 109.04825   7.06830 109.10527
      20   4.72027 109.64860         20.45483   0.700000   7.06830 109.10527   2.40198 109.04825   2.37224 110.19219   7.03856 110.24920
      20   4.69052 110.79354         20.47188   0.700000   7.03856 110.24920   2.37224 110.19219   2.34247 111.33813   7.00879 111.39514
      20   4.66074 111.94048         20.48895   0.700000   7.00879 111.39514   2.34247 111.33813   2.31268 112.48608   6.97900 112.54309
      20   4.63093 113.08943         20.50603   0.700000   6.97900 112.54309   2.31268 112.48608   2.28287 113.63603   6.94919 113.69304
      20   4.60111 114.24039         20.52313   0.700000   6.94919 113.69304   2.28287 113.63603   2.25303 114.78800   6.91935 114.84501
      20   4.57125 115.39337         20.54023   0.700000   6.91935 114.84501   2.25303 114.78800   2.22316 115.94198   6.88948 115.99900
      20   4.54138 116.54836         20.55736   0.700000   6.88948 115.99900   2.22316 115.94198   2.19327 117.09799   6.85959 117.15500
      20   4.51147 117.70538         20.57450   0.700000   6.85959 117.15500   2.19327 117.09799   2.16336 118.25602   6.82967 118.31303
      20   4.48155 118.86442         20.59165   0.700000   6.82967 118.31303   2.16336 118.25602   2.13342 119.41607   6.79973 119.47309
      20   4.45159 120.02549         20.60882   0.700000   6.79973 119.47309   2.13342 119.41607   2.10345 120.57816   6.76977 120.63517
      20   4.42162 121.18859         20.62600   0.700000   6.76977 120.63517   2.10345 120.57816   2.07346 121.74228   6.73978 121.79929
      20   4.39161 122.35373         20.64319   0.700000   6.73978 121.79929   2.07346 121.74228   2.04345 122.90844   6.70977 122.96545
      20   4.36159 123.52091         20.66040   0.700000   6.70977 122.96545   2.04345 122.90844   2.01341 124.07663   6.67973 124.13365
      20   4.33153 124.69013         20.67763   0.700000   6.67973 124.13365   2.01341 124.07663   1.98334 125.24688   6.64966 125.30389
      20   4.30146 125.86139         20.69487   0.700000   6.64966 125.30389   1.98334 125.24688   1.95325 126.41917   6.61957 126.47618
      20   4.27135 127.03471         20.71212   0.700000   6.61957 126.47618   1.95325 126.41917   1.92314 127.59351   6.58946 127.65052
      20   4.24123 128.21008         20.72939   0.700000   6.58946 127.65052   1.92314 127.59351   1.89300 128.76990   6.55931 128.82691
      20   4.21107 129.38750         20.74667   0.700000   6.55931 128.82691   1.89300 128.76990   1.86283 129.94836   6.52915 130.00537
      20   4.18090 130.56698         20.76396   0.700000   6.52915 130.00537   1.86283 129.94836   1.83264 131.12887   6.49896 131.18588
      19  14.73200  -4.63400         19.66917   1.920000  17.07309  -5.04251  12.40904  -5.19886  12.39091  -4.22526  17.05495  -4.06890
      19  14.71385  -3.65952         19.68557   1.920000  17.05495  -4.06890  12.39091  -4.22526  12.37276  -3.24991  17.03680  -3.09356
      19  14.69570  -2.68331         19.70198   1.920000  17.03680  -3.09356  12.37276  -3.24991  12.35459  -2.27282  17.01864  -2.11647
      19  14.67753  -1.70534         19.71840   1.920000  17.01864  -2.11647  12.35459  -2.27282  12.33641  -1.29398  17.00046  -1.13763
      19  14.65934  -0.72563         19.73484   1.920000  17.00046  -1.13763  12.33641  -1.29398  12.31822  -0.31339  16.98226  -0.15704
      19  14.64114   0.25584         19.75129   1.920000  16.98226  -0.15704  12.31822  -0.31339  12.30001   0.66895  16.96405   0.82530
      19  14.62292   1.23906         19.76776   1.920000  16.96405   0.82530  12.30001   0.66895  12.28178   1.65305  16.94583   1.80940
      19  14.60468   2.22404         19.78424   1.920000  16.94583   1.80940  12.28178   1.65305  12.26354   2.63891  16.92759   2.79526
      19  14.58644   3.21078         19.80073   1.920000  16.92759   2.79526  12.26354   2.63891  12.24529   3.62653  16.90933   3.78288
      19  14.56817   4.19928         19.81724   1.920000  16.90933   3.78288  12.24529   3.62653  12.22701   4.61592  16.89106   4.77227
      19  14.54989   5.18956         19.83376   1.920000  16.89106   4.77227  12.22701   4.61592  12.20873   5.60708  16.87278   5.76343
      19  14.53160   6.18160         19.85030   1.920000  16.87278   5.76343  12.20873   5.60708  12.19043   6.60001  16.85447   6.75636
      19  14.51329   7.17542         19.86685   1.920000  16.85447   6.75636  12.19043   6.60001  12.17211   7.59471  16.83616   7.75107
      19  14.49497   8.17101         19.88341   1.920000  16.83616   7.75107  12.17211   7.59471  12.15378   8.59120  16.81782   8.74755
      19  14.47663   9.16839         19.89998   1.920000  16.81782   8.74755  12.15378   8.59120  12.13543   9.58946  16.79948   9.74582
      19  14.45827  10.16755         19.91658   1.920000  16.79948   9.74582  12.13543   9.58946  12.11707  10.58951  16.78112  10.74587
      19  14.43990  11.16849         19.93318   1.920000  16.78112  10.74587  12.11707  10.58951  12.09869  11.59135  16.76274  11.74770
      19  14.42152  12.17122         19.94980   1.920000  16.76274  11.74770  12.09869  11.59135  12.08030  12.59498  16.74434  12.75133
      19  14.40312  13.17574         19.96643   1.920000  16.74434  12.75133  12.08030  12.59498  12.06189  13.60040  16.72594  13.75675
      19  14.38470  14.18206         19.98307   1.920000  16.72594  13.75675  12.06189  13.60040  12.04347  14.60762  16.70751  14.76397
      19  14.36627  15.19018         19.99973   1.920000  16.70751  14.76397  12.04347  14.60762  12.02503  15.61664  16.68907  15.77299
      19  14.34782  16.20010         20.01641   1.920000  16.68907  15.77299  12.02503  15.61664  12.00657  16.62746  16.67062  16.78381
      19  14.32936  17.21182         20.03309   1.920000  16.67062  16.78381  12.00657  16.62746  11.98810  17.64008  16.65215  17.79643
      19  14.31088  18.22536         20.04980   1.920000  16.65215  17.79643  11.98810  17.64008  11.96962  18.65452  16.63366  18.81087
      19  14.29239  19.24070         20.06651   1.920000  16.63366  18.81087  11.96962  18.65452  11.95112  19.67077  16.61516  19.82712
      19  14.27388  20.25785         20.08324   1.920000  16.61516  19.82712  11.95112  19.67077  11.93260  20.68883  16.59665  20.84518
      19  14.25536  21.27683         20.09998   1.920000  16.59665  20.84518  11.93260  20.68883  11.91407  21.70871  16.57811  21.86507
      19  14.23682  22.29762         20.11674   1.920000  16.57811  21.86507  11.91407  21.70871  11.89552  22.73042  16.55957  22.88677
      19  14.21826  23.32024         20.13351   1.920000  16.55957  22.88677  11.89552  22.73042  11.87696  23.75395  16.54100  23.91030
      19  14.19969  24.34468         20.15030   1.920000  16.54100  23.91030  11.87696  23.75395  11.85838  24.77930  16.52243  24.93565
      19  14.18111  25.37095         20.16709   1.920000  16.52243  24.93565  11.85838  24.77930  11.83979  25.80649  16.50383  25.96284
      19  14.16251  26.39906         20.18391   1.920000  16.50383  25.96284  11.83979  25.80649  11.82118  26.83551  16.48522  26.99186
      19  14.14389  27.42900         20.20073   1.920000  16.48522  26.99186  11.82118  26.83551  11.80255  27.86637  16.46660  28.02272
      19  14.12526  28.46078         20.21758   1.920000  16.46660  28.02272  11.80255  27.86637  11.78391  28.89907  16.44796  29.05542
      19  14.10661  29.49440         20.23443   1.920000  16.44796  29.05542  11.78391  28.89907  11.76526  29.93362  16.42930  30.08997
      19  14.08795  30.52986         20.25130   1.920000  16.42930  30.08997  11.76526  29.93362  11.74659  30.97001  16.41063  31.12636
      19  14.06927  31.56718         20.26818   1.920000  16.41063  31.12636  11.74659  30.97001  11.72790  32.00825  16.39195  32.16460
      19  14.05057  32.60635         20.28508   1.920000  16.39195  32.16460  11.72790  32.00825  11.70920  33.04834  16.37324  33.20469
      19  14.03186  33.64737         20.30199   1.920000  16.37324  33.20469  11.70920  33.04834  11.69048  34.09029  16.35453  34.24665
      19  14.01314  34.69025         20.31892   1.920000  16.35453  34.24665  11.69048  34.09029  11.67175  35.13410  16.33579  35.29046
      19  13.99439  35.73499         20.33586   1.920000  16.33579  35.29046  11.67175  35.13410  11.65300  36.17978  16.31704  36.33613
      19  13.97564  36.78160         20.35281   1.920000  16.31704  36.33613  11.65300  36.17978  11.63423  37.22732  16.29828  37.38367
      19  13.95687  37.83007         20.36978   1.920000  16.29828  37.38367  11.63423  37.22732  11.61545  38.27673  16.27950  38.43308
      19  13.93808  38.88042         20.38676   1.920000  16.27950  38.43308  11.61545  38.27673  11.59666  39.32801  16.26070  39.48436
      19  13.91927  39.93264         20.40376   1.920000  16.26070  39.48436  11.59666  39.32801  11.57784  40.38116  16.24189  40.53752
      19  13.90045  40.98673         20.42077   1.920000  16.24189  40.53752  11.57784  40.38116  11.55902  41.43620  16.22306  41.59255
      19  13.88162  42.04271         20.43779   1.920000  16.22306  41.59255  11.55902  41.43620  11.54017  42.49312  16.20422  42.64947
      19  13.86277  43.10057         20.45483   1.920000  16.20422  42.64947  11.54017  42.49312  11.52131  43.55192  16.18536  43.70827
      19  13.84390  44.16032         20.47188   1.920000  16.18536  43.70827  11.52131  43.55192  11.50244  44.61261  16.16649  44.76897
      19  13.82502  45.22196         20.48895   1.920000  16.16649  44.76897  11.50244  44.61261  11.48355  45.67520  16.14760  45.83155
      19  13.80612  46.28549         20.50603   1.920000  16.14760  45.83155  11.48355  45.67520  11.46464  46.73968  16.12869  46.89603
      19  13.78721  47.35092         20.52313   1.920000  16.12869  46.89603  11.46464  46.73968  11.44572  47.80606  16.10977  47.96241
      19  13.76828  48.41825         20.54023   1.920000  16.10977  47.96241  11.44572  47.80606  11.42679  48.87434  16.09083  49.03069
      19  13.74933  49.48748         20.55736   1.920000  16.09083  49.03069  11.42679  48.87434  11.40783  49.94452  16.07188  50.10087
      19  13.73037  50.55862         20.57450   1.920000  16.07188  50.10087  11.40783  49.94452  11.38886  51.01662  16.05291  51.17297
      19  13.71139  51.63167         20.59165   1.920000  16.05291  51.17297  11.38886  51.01662  11.36988  52.09062  16.03392  52.24697
      19  13.69240  52.70663         20.60882   1.920000  16.03392  52.24697  11.36988  52.09062  11.35088  53.16654  16.01492  53.32289
      19  13.67339  53.78351         20.62600   1.920000  16.01492  53.32289  11.35088  53.16654  11.33186  54.24438  15.99591  54.40073
      19  13.65437  54.86231         20.64319   1.920000  15.99591  54.40073  11.33186  54.24438  11.31283  55.32414  15.97687  55.48049
      19  13.63533  55.94303         20.66040   1.920000  15.97687  55.48049  11.31283  55.32414  11.29378  56.40582  15.95783  56.56217
      19  13.61627  57.02568         20.67763   1.920000  15.95783  56.56217  11.29378  56.40582  11.27472  57.48944  15.93876  57.64579
      19  13.59720  58.11025         20.69487   1.920000  15.93876  57.64579  11.27472  57.48944  11.25564  58.57498  15.91968  58.73133
      19  13.57811  59.19677         20.71212   1.920000  15.91968  58.73133  11.25564  58.57498  11.23654  59.66246  15.90059  59.81881
      19  13.55901  60.28521         20.72939   1.920000  15.90059  59.81881  11.23654  59.66246  11.21743  60.75187  15.88147  60.90823
      19  13.53989  61.37560         20.74667   1.920000  15.88147  60.90823  11.21743  60.75187  11.19830  61.84323  15.86235  61.99959
      19  13.52075  62.46793         20.76396   1.920000  15.86235  61.99959  11.19830  61.84323  11.17916  62.93654  15.84320  63.09289
      19  13.50160  63.56221         20.78127   1.920000  15.84320  63.09289  11.17916  62.93654  11.16000  64.03179  15.82404  64.18814
      19  13.48243  64.65844         20.79860   1.920000  15.82404  64.18814  11.16000  64.03179  11.14082  65.12899  15.80487  65.28534
      19  13.46325  65.75661         20.81594   1.920000  15.80487  65.28534  11.14082  65.12899  11.12163  66.22815  15.78568  66.38450
      19  13.44405  66.85675         20.83329   1.920000  15.78568  66.38450  11.12163  66.22815  11.10242  67.32926  15.76647  67.48562
      19  13.42483  67.95885         20.85066   1.920000  15.76647  67.48562  11.10242  67.32926  11.08320  68.43234  15.74724  68.58869
      19  13.40560  69.06291         20.86804   1.920000  15.74724  68.58869  11.08320  68.43234  11.06396  69.53738  15.72800  69.69374
      19  13.38635  70.16893         20.88544   1.920000  15.72800  69.69374  11.06396  69.53738  11.04470  70.64439  15.70875  70.80075
      19  13.36709  71.27693         20.90285   1.920000  15.70875  70.80075  11.04470  70.64439  11.02543  71.75338  15.68948  71.90973
      19  13.34781  72.38690         20.92028   1.920000  15.68948  71.90973  11.02543  71.75338  11.00614  72.86433  15.67019  73.02069
      19  13.32851  73.49885         20.93772   1.920000  15.67019  73.02069  11.00614  72.86433  10.98684  73.97727  15.65088  74.13362
      19  13.30920  74.61277         20.95518   1.920000  15.65088  74.13362  10.98684  73.97727  10.96752  75.09219  15.63156  75.24854
      19  13.28987  75.72868         20.97265   1.920000  15.63156  75.24854  10.96752  75.09219  10.94818  76.20909  15.61223  76.36544
      19  13.27053  76.84658         20.99013   1.920000  15.61223  76.36544  10.94818  76.20909  10.92883  77.32798  15.59288  77.48433
      19  13.25117  77.96647         21.00763   1.920000  15.59288  77.48433  10.92883  77.32798  10.90946  78.44887  15.57351  78.60522
      19  13.23179  79.08835         21.02514   1.920000  15.57351  78.60522  10.90946  78.44887  10.89008  79.57175  15.55412  79.72810
      19  13.21240  80.21223         21.04267   1.920000  15.55412  79.72810  10.89008  79.57175  10.87068  80.69662  15.53472  80.85298
      19  13.19299  81.33811         21.06021   1.920000  15.53472  80.85298  10.87068  80.69662  10.85126  81.82351  15.51531  81.97986
      19  13.17357  82.46599         21.07777   1.920000  15.51531  81.97986  10.85126  81.82351  10.83183  82.95239  15.49587  83.10874
      19  13.15412  83.59588         21.09534   1.920000  15.49587  83.10874  10.83183  82.95239  10.81238  84.08329  15.47642  84.23964
      19  13.13467  84.72779         21.11293   1.920000  15.47642  84.23964  10.81238  84.08329  10.79291  85.21620  15.45696  85.37255
      19  13.11519  85.86170         21.13053   1.920000  15.45696  85.37255  10.79291  85.21620  10.77343  86.35112  15.43748  86.50748
      19  13.09570  86.99764         21.14815   1.920000  15.43748  86.50748  10.77343  86.35112  10.75393  87.48807  15.41798  87.64442
      19  13.07620  88.13559         21.16578   1.920000  15.41798  87.64442  10.75393  87.48807  10.73442  88.62704  15.39846  88.78339
      19  13.05667  89.27558         21.18342   1.920000  15.39846  88.78339  10.73442  88.62704  10.71489  89.76803  15.37893  89.92438
      19  13.03714  90.41759         21.20108   1.920000  15.37893  89.92438  10.71489  89.76803  10.69534  90.91106  15.35939  91.06741
      19  13.01758  91.56163         21.21876   1.920000  15.35939  91.06741  10.69534  90.91106  10.67578  92.05612  15.33982  92.21247
      19  12.99801  92.70771         21.23645   1.920000  15.33982  92.21247  10.67578  92.05612  10.65620  93.20321  15.32024  93.35957
      19  12.97842  93.85582         21.25415   1.920000  15.32024  93.35957  10.65620  93.20321  10.63660  94.35235  15.30065  94.50870
      19  12.95882  95.00598         21.27187   1.920000  15.30065  94.50870  10.63660  94.35235  10.61699  95.50353  15.28104  95.65988
      19  12.93920  96.15819         21.28961   1.920000  15.28104  95.65988  10.61699  95.50353  10.59736  96.65676  15.26141  96.81311
      19  12.91956  97.31244         21.30735   1.920000  15.26141  96.81311  10.59736  96.65676  10.57772  97.81204  15.24176  97.96839
      19  12.89991  98.46875         21.32512   1.920000  15.24176  97.96839  10.57772  97.81204  10.55805  98.96937  15.22210  99.12573
      19  12.88024  99.62711         21.34290   1.920000  15.22210  99.12573  10.55805  98.96937  10.53838 100.12877  15.20242 100.28512
      19  12.86055 100.78753         21.36069   1.920000  15.20242 100.28512  10.53838 100.12877  10.51868 101.29022  15.18273 101.44658
      19  12.84085 101.95002         21.37850   1.920000  15.18273 101.44658  10.51868 101.29022  10.49897 102.45374  15.16302 102.61010
      19  12.82113 103.11458         21.39632   1.920000  15.16302 102.61010  10.49897 102.45374  10.47925 103.61933  15.14329 103.77568
      19  12.80140 104.28120         21.41416   1.920000  15.14329 103.77568  10.47925 103.61933  10.45950 104.78699  15.12355 104.94335
      19  12.78165 105.44990         21.43201   1.920000  15.12355 104.94335  10.45950 104.78699  10.43974 105.95673  15.10379 106.11308
      19  12.76188 106.62068         21.44988   1.920000  15.10379 106.11308  10.43974 105.95673  10.41997 107.12855  15.08401 107.28490
      19  12.74209 107.79354         21.46776   1.920000  15.08401 107.28490  10.41997 107.12855  10.40017 108.30245  15.06422 108.45880
      19  12.72229 108.96848         21.48566   1.920000  15.06422 108.45880  10.40017 108.30245  10.38036 109.47844  15.04441 109.63479
      19  12.70248 110.14551         21.50357   1.920000  15.04441 109.63479  10.38036 109.47844  10.36054 110.65652  15.02459 110.81287
      19  12.68264 111.32464         21.52150   1.920000  15.02459 110.81287  10.36054 110.65652  10.34070 111.83669  15.00474 111.99304
      19  12.66279 112.50586         21.53944   1.920000  15.00474 111.99304  10.34070 111.83669  10.32084 113.01896  14.98488 113.17531
      19  12.64292 113.68918         21.55740   1.920000  14.98488 113.17531  10.32084 113.01896  10.30096 114.20333  14.96501 114.35968
      19  12.62304 114.87460         21.57537   1.920000  14.96501 114.35968  10.30096 114.20333  10.28107 115.38980  14.94512 115.54615
      19  12.60314 116.06213         21.59336   1.920000  14.94512 115.54615  10.28107 115.38980  10.26116 116.57839  14.92521 116.73474
      19  12.58322 117.25177         21.61136   1.920000  14.92521 116.73474  10.26116 116.57839  10.24124 117.76908  14.90528 117.92543
      19  12.56329 118.44352         21.62937   1.920000  14.90528 117.92543  10.24124 117.76908  10.22130 118.96189  14.88534 119.11825
      19  12.54334 119.63739         21.64741   1.920000  14.88534 119.11825  10.22130 118.96189  10.20134 120.15682  14.86538 120.31318
      19  12.52337 120.83339         21.66545   1.920000  14.86538 120.31318  10.20134 120.15682  10.18136 121.35388  14.84541 121.51023
      19  12.50339 122.03150         21.68352   1.920000  14.84541 121.51023  10.18136 121.35388  10.16137 122.55306  14.82542 122.70941
      19  12.48339 123.23175         21.70159   1.920000  14.82542 122.70941  10.16137 122.55306  10.14136 123.75437  14.80541 123.91072
      19  12.46337 124.43412         21.71968   1.920000  14.80541 123.91072  10.14136 123.75437  10.12134 124.95781  14.78538 125.11416
      19  12.44334 125.63864         21.73779   1.920000  14.78538 125.11416  10.12134 124.95781  10.10130 126.16339  14.76534 126.31975
      19  12.42329 126.84529         21.75591   1.920000  14.76534 126.31975  10.10130 126.16339  10.08124 127.37112  14.74528 127.52747
      19  12.40322 128.05409         21.77405   1.920000  14.74528 127.52747  10.08124 127.37112  10.06116 128.58099  14.72521 128.73734
      18  22.51953   0.41089         20.81594   3.140000  24.85435   0.05809  20.19469  -0.19753  20.18471   0.76392  24.84437   1.01954
      18  22.50955   1.37320         20.83329   3.140000  24.84437   1.01954  20.18471   0.76392  20.17472   1.72708  24.83438   1.98270
      18  22.49955   2.33721         20.85066   3.140000  24.83438   1.98270  20.17472   1.72708  20.16472   2.69194  24.82438   2.94756
      18  22.48955   3.30292         20.86804   3.140000  24.82438   2.94756  20.16472   2.69194  20.15472   3.65850  24.81438   3.91412
      18  22.47954   4.27034         20.88544   3.140000  24.81438   3.91412  20.15472   3.65850  20.14470   4.62678  24.80436   4.88240
      18  22.46952   5.23947         20.90285   3.140000  24.80436   4.88240  20.14470   4.62678  20.13468   5.59676  24.79434   5.85238
      18  22.45949   6.21031         20.92028   3.140000  24.79434   5.85238  20.13468   5.59676  20.12464   6.56846  24.78430   6.82408
      18  22.44945   7.18286         20.93772   3.140000  24.78430   6.82408  20.12464   6.56846  20.11460   7.54188  24.77426   7.79750
      18  22.43941   8.15714         20.95518   3.140000  24.77426   7.79750  20.11460   7.54188  20.10455   8.51701  24.76421   8.77263
      18  22.42936   9.13314         20.97265   3.140000  24.76421   8.77263  20.10455   8.51701  20.09450   9.49387  24.75416   9.74949
      18  22.41929  10.11086         20.99013   3.140000  24.75416   9.74949  20.09450   9.49387  20.08443  10.47246  24.74409  10.72808
      18  22.40922  11.09031         21.00763   3.140000  24.74409  10.72808  20.08443  10.47246  20.07436  11.45278  24.73402  11.70840
      18  22.39915  12.07150         21.02514   3.140000  24.73402  11.70840  20.07436  11.45278  20.06427  12.43482  24.72393  12.69044
      18  22.38906  13.05441         21.04267   3.140000  24.72393  12.69044  20.06427  12.43482  20.05418  13.41861  24.71384  13.67423
      18  22.37896  14.03906         21.06021   3.140000  24.71384  13.67423  20.05418  13.41861  20.04408  14.40413  24.70374  14.65975
      18  22.36886  15.02545         21.07777   3.140000  24.70374  14.65975  20.04408  14.40413  20.03398  15.39139  24.69364  15.64701
      18  22.35875  16.01359         21.09534   3.140000  24.69364  15.64701  20.03398  15.39139  20.02386  16.38040  24.68352  16.63602
      18  22.34863  17.00347         21.11293   3.140000  24.68352  16.63602  20.02386  16.38040  20.01374  17.37115  24.67340  17.62677
      18  22.33850  17.99510         21.13053   3.140000  24.67340  17.62677  20.01374  17.37115  20.00360  18.36365  24.66326  18.61927
      18  22.32836  18.98847         21.14815   3.140000  24.66326  18.61927  20.00360  18.36365  19.99346  19.35791  24.65312  19.61353
      18  22.31822  19.98361         21.16578   3.140000  24.65312  19.61353  19.99346  19.35791  19.98331  20.35392  24.64297  20.60954
      18  22.30806  20.98050         21.18342   3.140000  24.64297  20.60954  19.98331  20.35392  19.97315  21.35169  24.63281  21.60731
      18  22.29790  21.97915         21.20108   3.140000  24.63281  21.60731  19.97315  21.35169  19.96299  22.35123  24.62265  22.60685
      18  22.28773  22.97957         21.21876   3.140000  24.62265  22.60685  19.96299  22.35123  19.95281  23.35252  24.61247  23.60815
      18  22.27755  23.98175         21.23645   3.140000  24.61247  23.60815  19.95281  23.35252  19.94263  24.35559  24.60229  24.61121
      18  22.26736  24.98570         21.25415   3.140000  24.60229  24.61121  19.94263  24.35559  19.93243  25.36043  24.59209  25.61605
      18  22.25716  25.99143         21.27187   3.140000  24.59209  25.61605  19.93243  25.36043  19.92223  26.36704  24.58189  26.62266
      18  22.24696  26.99893         21.28961   3.140000  24.58189  26.62266  19.92223  26.36704  19.91202  27.37543  24.57168  27.63105
      18  22.23674  28.00821         21.30735   3.140000  24.57168  27.63105  19.91202  27.37543  19.90181  28.38560  24.56147  28.64122
      18  22.22652  29.01927         21.32512   3.140000  24.56147  28.64122  19.90181  28.38560  19.89158  29.39755  24.55124  29.65318
      18  22.21629  30.03212         21.34290   3.140000  24.55124  29.65318  19.89158  29.39755  19.88134  30.41129  24.54100  30.66692
      18  22.20605  31.04675         21.36069   3.140000  24.54100  30.66692  19.88134  30.41129  19.87110  31.42682  24.53076  31.68244
      18  22.19581  32.06318         21.37850   3.140000  24.53076  31.68244  19.87110  31.42682  19.86085  32.44414  24.52051  32.69977
      18  22.18555  33.08140         21.39632   3.140000  24.52051  32.69977  19.86085  32.44414  19.85059  33.46326  24.51025  33.71888
      18  22.17528  34.10141         21.41416   3.140000  24.51025  33.71888  19.85059  33.46326  19.84032  34.48418  24.49998  34.73980
      18  22.16501  35.12323         21.43201   3.140000  24.49998  34.73980  19.84032  34.48418  19.83004  35.50690  24.48970  35.76252
      18  22.15473  36.14685         21.44988   3.140000  24.48970  35.76252  19.83004  35.50690  19.81976  36.53142  24.47942  36.78704
      18  22.14444  37.17227         21.46776   3.140000  24.47942  36.78704  19.81976  36.53142  19.80946  37.55775  24.46912  37.81337
      18  22.13414  38.19951         21.48566   3.140000  24.46912  37.81337  19.80946  37.55775  19.79916  38.58589  24.45882  38.84151
      18  22.12383  39.22856         21.50357   3.140000  24.45882  38.84151  19.79916  38.58589  19.78885  39.61585  24.44851  39.87147
      18  22.11352  40.25942         21.52150   3.140000  24.44851  39.87147  19.78885  39.61585  19.77852  40.64762  24.43818  40.90324
      18  22.10319  41.29211         21.53944   3.140000  24.43818  40.90324  19.77852  40.64762  19.76820  41.68121  24.42786  41.93683
      18  22.09286  42.32661         21.55740   3.140000  24.42786  41.93683  19.76820  41.68121  19.75786  42.71663  24.41752  42.97225
      18  22.08251  43.36294         21.57537   3.140000  24.41752  42.97225  19.75786  42.71663  19.74751  43.75387  24.40717  44.00949
      18  22.07216  44.40110         21.59336   3.140000  24.40717  44.00949  19.74751  43.75387  19.73716  44.79294  24.39682  45.04857
      18  22.06180  45.44109         21.61136   3.140000  24.39682  45.04857  19.73716  44.79294  19.72679  45.83385  24.38645  46.08947
      18  22.05144  46.48291         21.62937   3.140000  24.38645  46.08947  19.72679  45.83385  19.71642  46.87659  24.37608  47.13221
      18  22.04106  47.52657         21.64741   3.140000  24.37608  47.13221  19.71642  46.87659  19.70604  47.92117  24.36570  48.17679
      18  22.03067  48.57207         21.66545   3.140000  24.36570  48.17679  19.70604  47.92117  19.69565  48.96760  24.35531  49.22322
      18  22.02028  49.61942         21.68352   3.140000  24.35531  49.22322  19.69565  48.96760  19.68525  50.01587  24.34491  50.27149
      18  22.00988  50.66861         21.70159   3.140000  24.34491  50.27149  19.68525  50.01587  19.67484  51.06598  24.33450  51.32160
      18  21.99947  51.71966         21.71968   3.140000  24.33450  51.32160  19.67484  51.06598  19.66443  52.11795  24.32409  52.37357
      18  21.98905  52.77255         21.73779   3.140000  24.32409  52.37357  19.66443  52.11795  19.65400  53.17178  24.31366  53.42740
      18  21.97862  53.82731         21.75591   3.140000  24.31366  53.42740  19.65400  53.17178  19.64357  54.22746  24.30323  54.48308
      18  21.96818  54.88392         21.77405   3.140000  24.30323  54.48308  19.64357  54.22746  19.63313  55.28500  24.29279  55.54062
      18  21.95773  55.94240         21.79220   3.140000  24.29279  55.54062  19.63313  55.28500  19.62268  56.34441  24.28234  56.60003
      18  21.94728  57.00274         21.81037   3.140000  24.28234  56.60003  19.62268  56.34441  19.61222  57.40569  24.27188  57.66131
      18  21.93682  58.06495         21.82856   3.140000  24.27188  57.66131  19.61222  57.40569  19.60175  58.46883  24.26141  58.72446
      18  21.92634  59.12903         21.84675   3.140000  24.26141  58.72446  19.60175  58.46883  19.59128  59.53386  24.25094  59.78948
      18  21.91586  60.19499         21.86497   3.140000  24.25094  59.78948  19.59128  59.53386  19.58079  60.60075  24.24045  60.85638
      18  21.90537  61.26283         21.88319   3.140000  24.24045  60.85638  19.58079  60.60075  19.57030  61.66953  24.22996  61.92515
      18  21.89488  62.33255         21.90144   3.140000  24.22996  61.92515  19.57030  61.66953  19.55979  62.74020  24.21945  62.99582
      18  21.88437  63.40416         21.91970   3.140000  24.21945  62.99582  19.55979  62.74020  19.54928  63.81275  24.20894  64.06837
      18  21.87385  64.47765         21.93797   3.140000  24.20894  64.06837  19.54928  63.81275  19.53876  64.88719  24.19842  65.14281
      18  21.86333  65.55304         21.95626   3.140000  24.19842  65.14281  19.53876  64.88719  19.52823  65.96352  24.18789  66.21914
      18  21.85279  66.63032         21.97457   3.140000  24.18789  66.21914  19.52823  65.96352  19.51770  67.04175  24.17736  67.29737
      18  21.84225  67.70950         21.99288   3.140000  24.17736  67.29737  19.51770  67.04175  19.50715  68.12188  24.16681  68.37750
      18  21.83170  68.79058         22.01122   3.140000  24.16681  68.37750  19.50715  68.12188  19.49659  69.20391  24.15625  69.45953
      18  21.82114  69.87357         22.02957   3.140000  24.15625  69.45953  19.49659  69.20391  19.48603  70.28785  24.14569  70.54347
      18  21.81057  70.95846         22.04794   3.140000  24.14569  70.54347  19.48603  70.28785  19.47546  71.37370  24.13512  71.62932
      18  21.80000  72.04527         22.06632   3.140000  24.13512  71.62932  19.47546  71.37370  19.46487  72.46146  24.12453  72.71708
      18  21.78941  73.13399         22.08471   3.140000  24.12453  72.71708  19.46487  72.46146  19.45428  73.55114  24.11394  73.80676
      18  21.77881  74.22463         22.10312   3.140000  24.11394  73.80676  19.45428  73.55114  19.44368  74.64274  24.10334  74.89836
      18  21.76821  75.31719         22.12155   3.140000  24.10334  74.89836  19.44368  74.64274  19.43308  75.73626  24.09274  75.99188
      18  21.75760  76.41167         22.13999   3.140000  24.09274  75.99188  19.43308  75.73626  19.42246  76.83171  24.08212  77.08733
      18  21.74698  77.50808         22.15845   3.140000  24.08212  77.08733  19.42246  76.83171  19.41183  77.92909  24.07149  78.18471
      18  21.73635  78.60642         22.17692   3.140000  24.07149  78.18471  19.41183  77.92909  19.40120  79.02840  24.06086  79.28402
      18  21.72571  79.70670         22.19541   3.140000  24.06086  79.28402  19.40120  79.02840  19.39055  80.12964  24.05021  80.38526
      18  21.71506  80.80892         22.21392   3.140000  24.05021  80.38526  19.39055  80.12964  19.37990  81.23283  24.03956  81.48845
      18  21.70440  81.91307         22.23244   3.140000  24.03956  81.48845  19.37990  81.23283  19.36924  82.33795  24.02890  82.59357
      18  21.69373  83.01917         22.25097   3.140000  24.02890  82.59357  19.36924  82.33795  19.35857  83.44503  24.01823  83.70065
      18  21.68306  84.12722         22.26952   3.140000  24.01823  83.70065  19.35857  83.44503  19.34789  84.55405  24.00755  84.80967
      18  21.67238  85.23722         22.28809   3.140000  24.00755  84.80967  19.34789  84.55405  19.33720  85.66503  23.99686  85.92065
      18  21.66168  86.34917         22.30667   3.140000  23.99686  85.92065  19.33720  85.66503  19.32650  86.77796  23.98617  87.03358
      18  21.65098  87.46308         22.32526   3.140000  23.98617  87.03358  19.32650  86.77796  19.31580  87.89285  23.97546  88.14847
      18  21.64027  88.57896         22.34388   3.140000  23.97546  88.14847  19.31580  87.89285  19.30508  89.00970  23.96474  89.26532
      18  21.62955  89.69679         22.36250   3.140000  23.96474  89.26532  19.30508  89.00970  19.29436  90.12852  23.95402  90.38414
      18  21.61882  90.81660         22.38115   3.140000  23.95402  90.38414  19.29436  90.12852  19.28363  91.24931  23.94329  91.50493
      18  21.60809  91.93837         22.39981   3.140000  23.94329  91.50493  19.28363  91.24931  19.27289  92.37207  23.93255  92.62769
      18  21.59734  93.06212         22.41848   3.140000  23.93255  92.62769  19.27289  92.37207  19.26213  93.49681  23.92180  93.75243
      18  21.58659  94.18785         22.43717   3.140000  23.92180  93.75243  19.26213  93.49681  19.25138  94.62353  23.91104  94.87915
      18  21.57582  95.31556         22.45588   3.140000  23.91104  94.87915  19.25138  94.62353  19.24061  95.75223  23.90027  96.00785
      18  21.56505  96.44525         22.47460   3.140000  23.90027  96.00785  19.24061  95.75223  19.22983  96.88292  23.88949  97.13854
      18  21.55427  97.57694         22.49333   3.140000  23.88949  97.13854  19.22983  96.88292  19.21904  98.01559  23.87870  98.27121
      18  21.54347  98.71061         22.51209   3.140000  23.87870  98.27121  19.21904  98.01559  19.20825  99.15026  23.86791  99.40589
      18  21.53267  99.84628         22.53085   3.140000  23.86791  99.40589  19.20825  99.15026  19.19744 100.28693  23.85710 100.54255
      18  21.52187 100.98394         22.54964   3.140000  23.85710 100.54255  19.19744 100.28693  19.18663 101.42560  23.84629 101.68122
      18  21.51105 102.12361         22.56844   3.140000  23.84629 101.68122  19.18663 101.42560  19.17581 102.56627  23.83547 102.82189
      18  21.50022 103.26528         22.58725   3.140000  23.83547 102.82189  19.17581 102.56627  19.16497 103.70894  23.82463 103.96457
      18  21.48938 104.40897         22.60608   3.140000  23.82463 103.96457  19.16497 103.70894  19.15413 104.85363  23.81379 105.10925
      18  21.47854 105.55466         22.62493   3.140000  23.81379 105.10925  19.15413 104.85363  19.14328 106.00033  23.80294 106.25595
      18  21.46768 106.70237         22.64379   3.140000  23.80294 106.25595  19.14328 106.00033  19.13242 107.14905  23.79209 107.40467
      18  21.45682 107.85210         22.66267   3.140000  23.79209 107.40467  19.13242 107.14905  19.12156 108.29979  23.78122 108.55541
      18  21.44595 109.00385         22.68156   3.140000  23.78122 108.55541  19.12156 108.29979  19.11068 109.45255  23.77034 109.70817
      18  21.43507 110.15762         22.70047   3.140000  23.77034 109.70817  19.11068 109.45255  19.09979 110.60734  23.75945 110.86296
      18  21.42418 111.31343         22.71940   3.140000  23.75945 110.86296  19.09979 110.60734  19.08890 111.76416  23.74856 112.01978
      18  21.41328 112.47127         22.73834   3.140000  23.74856 112.01978  19.08890 111.76416  19.07800 112.92302  23.73766 113.17864
      18  21.40237 113.63114         22.75729   3.140000  23.73766 113.17864  19.07800 112.92302  19.06708 114.08391  23.72674 114.33953
      18  21.39145 114.79306         22.77626   3.140000  23.72674 114.33953  19.06708 114.08391  19.05616 115.24685  23.71582 115.50247
      18  21.38052 115.95701         22.79525   3.140000  23.71582 115.50247  19.05616 115.24685  19.04523 116.41183  23.70489 116.66745
      18  21.36959 117.12302         22.81426   3.140000  23.70489 116.66745  19.04523 116.41183  19.03429 117.57886  23.69395 117.83448
      18  21.35864 118.29107         22.83328   3.140000  23.69395 117.83448  19.03429 117.57886  19.02334 118.74794  23.68300 119.00356
      18  21.34769 119.46118         22.85231   3.140000  23.68300 119.00356  19.02334 118.74794  19.01238 119.91907  23.67204 120.17470
      18  21.33673 120.63335         22.87136   3.140000  23.67204 120.17470  19.01238 119.91907  19.00141 121.09227  23.66107 121.34789
      18  21.32575 121.80757         22.89043   3.140000  23.66107 121.34789  19.00141 121.09227  18.99043 122.26753  23.65009 122.52315
      18  21.31477 122.98386         22.90951   3.140000  23.65009 122.52315  18.99043 122.26753  18.97945 123.44485  23.63911 123.70047
      18  21.30378 124.16222         22.92861   3.140000  23.63911 123.70047  18.97945 123.44485  18.96845 124.62424  23.62811 124.87986
      18  21.29278 125.34265         22.94773   3.140000  23.62811 124.87986  18.96845 124.62424  18.95745 125.80571  23.61711 126.06133
      18  21.28177 126.52516         22.96686   3.140000  23.61711 126.06133  18.95745 125.80571  18.94643 126.98925  23.60609 127.24487
      18  21.27075 127.70974         22.98601   3.140000  23.60609 127.24487  18.94643 126.98925  18.93541 128.17488  23.59507 128.43050
      18  21.25973 128.89640         23.00517   3.140000  23.59507 128.43050  18.93541 128.17488  18.92438 129.36258  23.58404 129.61820
      17  31.17585   0.20909         22.02957   4.470000  33.50312  -0.08771  28.85065  -0.45141  28.84857   0.50611  33.50105   0.86981
      17  31.17377   1.16745         22.04794   4.470000  33.50105   0.86981  28.84857   0.50611  28.84649   1.46532  33.49897   1.82902
      17  31.17169   2.12751         22.06632   4.470000  33.49897   1.82902  28.84649   1.46532  28.84441   2.42622  33.49689   2.78993
      17  31.16961   3.08926         22.08471   4.470000  33.49689   2.78993  28.84441   2.42622  28.84233   3.38882  33.49480   3.75252
      17  31.16752   4.05271         22.10312   4.470000  33.49480   3.75252  28.84233   3.38882  28.84025   4.35311  33.49272   4.71682
      17  31.16544   5.01785         22.12155   4.470000  33.49272   4.71682  28.84025   4.35311  28.83816   5.31911  33.49063   5.68282
      17  31.16335   5.98470         22.13999   4.470000  33.49063   5.68282  28.83816   5.31911  28.83607   6.28681  33.48854   6.65052
      17  31.16126   6.95326         22.15845   4.470000  33.48854   6.65052  28.83607   6.28681  28.83398   7.25622  33.48645   7.61993
      17  31.15917   7.92352         22.17692   4.470000  33.48645   7.61993  28.83398   7.25622  28.83189   8.22734  33.48436   8.59105
      17  31.15708   8.89550         22.19541   4.470000  33.48436   8.59105  28.83189   8.22734  28.82980   9.20017  33.48227   9.56388
      17  31.15498   9.86919         22.21392   4.470000  33.48227   9.56388  28.82980   9.20017  28.82770  10.17472  33.48017  10.53843
      17  31.15289  10.84459         22.23244   4.470000  33.48017  10.53843  28.82770  10.17472  28.82560  11.15099  33.47808  11.51469
      17  31.15079  11.82172         22.25097   4.470000  33.47808  11.51469  28.82560  11.15099  28.82351  12.12897  33.47598  12.49268
      17  31.14869  12.80057         22.26952   4.470000  33.47598  12.49268  28.82351  12.12897  28.82141  13.10869  33.47388  13.47239
      17  31.14659  13.78114         22.28809   4.470000  33.47388  13.47239  28.82141  13.10869  28.81930  14.09013  33.47178  14.45383
      17  31.14449  14.76345         22.30667   4.470000  33.47178  14.45383  28.81930  14.09013  28.81720  15.07330  33.46967  15.43700
      17  31.14238  15.74749         22.32526   4.470000  33.46967  15.43700  28.81720  15.07330  28.81509  16.05820  33.46757  16.42191
      17  31.14028  16.73326         22.34388   4.470000  33.46757  16.42191  28.81509  16.05820  28.81299  17.04484  33.46546  17.40855
      17  31.13817  17.72077         22.36250   4.470000  33.46546  17.40855  28.81299  17.04484  28.81088  18.03322  33.46335  18.39693
      17  31.13606  18.71002         22.38115   4.470000  33.46335  18.39693  28.81088  18.03322  28.80877  19.02334  33.46124  19.38705
      17  31.13395  19.70101         22.39981   4.470000  33.46124  19.38705  28.80877  19.02334  28.80665  20.01521  33.45913  20.37892
      17  31.13183  20.69375         22.41848   4.470000  33.45913  20.37892  28.80665  20.01521  28.80454  21.00882  33.45701  21.37253
      17  31.12972  21.68825         22.43717   4.470000  33.45701  21.37253  28.80454  21.00882  28.80242  22.00419  33.45490  22.36790
      17  31.12760  22.68449         22.45588   4.470000  33.45490  22.36790  28.80242  22.00419  28.80031  23.00131  33.45278  23.36502
      17  31.12548  23.68249         22.47460   4.470000  33.45278  23.36502  28.80031  23.00131  28.79819  24.00019  33.45066  24.36390
      17  31.12336  24.68225         22.49333   4.470000  33.45066  24.36390  28.79819  24.00019  28.79606  25.00083  33.44854  25.36454
      17  31.12124  25.68377         22.51209   4.470000  33.44854  25.36454  28.79606  25.00083  28.79394  26.00324  33.44641  26.36694
      17  31.11911  26.68706         22.53085   4.470000  33.44641  26.36694  28.79394  26.00324  28.79182  27.00740  33.44429  27.37111
      17  31.11699  27.69211         22.54964   4.470000  33.44429  27.37111  28.79182  27.00740  28.78969  28.01334  33.44216  28.37705
      17  31.11486  28.69894         22.56844   4.470000  33.44216  28.37705  28.78969  28.01334  28.78756  29.02105  33.44003  29.38476
      17  31.11273  29.70753         22.58725   4.470000  33.44003  29.38476  28.78756  29.02105  28.78543  30.03054  33.43790  30.39425
      17  31.11060  30.71791         22.60608   4.470000  33.43790  30.39425  28.78543  30.03054  28.78330  31.04181  33.43577  31.40551
      17  31.10847  31.73007         22.62493   4.470000  33.43577  31.40551  28.78330  31.04181  28.78116  32.05485  33.43364  32.41856
      17  31.10633  32.74401         22.64379   4.470000  33.43364  32.41856  28.78116  32.05485  28.77903  33.06969  33.43150  33.43339
      17  31.10420  33.75973         22.66267   4.470000  33.43150  33.43339  28.77903  33.06969  28.77689  34.08631  33.42936  34.45001
      17  31.10206  34.77725         22.68156   4.470000  33.42936  34.45001  28.77689  34.08631  28.77475  35.10472  33.42722  35.46842
      17  31.09992  35.79655         22.70047   4.470000  33.42722  35.46842  28.77475  35.10472  28.77261  36.12492  33.42508  36.48863
      17  31.09778  36.81765         22.71940   4.470000  33.42508  36.48863  28.77261  36.12492  28.77047  37.14692  33.42294  37.51063
      17  31.09563  37.84056         22.73834   4.470000  33.42294  37.51063  28.77047  37.14692  28.76832  38.17072  33.42080  38.53443
      17  31.09349  38.86526         22.75729   4.470000  33.42080  38.53443  28.76832  38.17072  28.76618  39.19633  33.41865  39.56003
      17  31.09134  39.89176         22.77626   4.470000  33.41865  39.56003  28.76618  39.19633  28.76403  40.22374  33.41650  40.58744
      17  31.08919  40.92008         22.79525   4.470000  33.41650  40.58744  28.76403  40.22374  28.76188  41.25295  33.41435  41.61666
      17  31.08704  41.95020         22.81426   4.470000  33.41435  41.61666  28.76188  41.25295  28.75973  42.28399  33.41220  42.64769
      17  31.08489  42.98214         22.83328   4.470000  33.41220  42.64769  28.75973  42.28399  28.75757  43.31683  33.41005  43.68054
      17  31.08273  44.01590         22.85231   4.470000  33.41005  43.68054  28.75757  43.31683  28.75542  44.35150  33.40789  44.71521
      17  31.08058  45.05148         22.87136   4.470000  33.40789  44.71521  28.75542  44.35150  28.75326  45.38799  33.40573  45.75169
      17  31.07842  46.08888         22.89043   4.470000  33.40573  45.75169  28.75326  45.38799  28.75110  46.42630  33.40357  46.79001
      17  31.07626  47.12810         22.90951   4.470000  33.40357  46.79001  28.75110  46.42630  28.74894  47.46644  33.40141  47.83015
      17  31.07410  48.16916         22.92861   4.470000  33.40141  47.83015  28.74894  47.46644  28.74678  48.50841  33.39925  48.87212
      17  31.07193  49.21205         22.94773   4.470000  33.39925  48.87212  28.74678  48.50841  28.74462  49.55222  33.39709  49.91592
      17  31.06977  50.25677         22.96686   4.470000  33.39709  49.91592  28.74462  49.55222  28.74245  50.59786  33.39492  50.96157
      17  31.06760  51.30333         22.98601   4.470000  33.39492  50.96157  28.74245  50.59786  28.74028  51.64534  33.39275  52.00905
      17  31.06543  52.35174         23.00517   4.470000  33.39275  52.00905  28.74028  51.64534  28.73811  52.69467  33.39058  53.05838
      17  31.06326  53.40199         23.02435   4.470000  33.39058  53.05838  28.73811  52.69467  28.73594  53.74584  33.38841  54.10955
      17  31.06109  54.45409         23.04354   4.470000  33.38841  54.10955  28.73594  53.74584  28.73377  54.79887  33.38624  55.16257
      17  31.05891  55.50804         23.06276   4.470000  33.38624  55.16257  28.73377  54.79887  28.73159  55.85374  33.38406  56.21745
      17  31.05674  56.56384         23.08198   4.470000  33.38406  56.21745  28.73159  55.85374  28.72941  56.91048  33.38189  57.27418
      17  31.05456  57.62150         23.10123   4.470000  33.38189  57.27418  28.72941  56.91048  28.72724  57.96907  33.37971  58.33278
      17  31.05238  58.68103         23.12048   4.470000  33.37971  58.33278  28.72724  57.96907  28.72505  59.02952  33.37753  59.39323
      17  31.05020  59.74242         23.13976   4.470000  33.37753  59.39323  28.72505  59.02952  28.72287  60.09185  33.37534  60.45555
      17  31.04802  60.80567         23.15905   4.470000  33.37534  60.45555  28.72287  60.09185  28.72069  61.15604  33.37316  61.51974
      17  31.04583  61.87080         23.17836   4.470000  33.37316  61.51974  28.72069  61.15604  28.71850  62.22210  33.37097  62.58580
      17  31.04364  62.93780         23.19768   4.470000  33.37097  62.58580  28.71850  62.22210  28.71631  63.29004  33.36879  63.65374
      17  31.04146  64.00667         23.21702   4.470000  33.36879  63.65374  28.71631  63.29004  28.71412  64.35985  33.36660  64.72356
      17  31.03926  65.07743         23.23638   4.470000  33.36660  64.72356  28.71412  64.35985  28.71193  65.43155  33.36440  65.79526
      17  31.03707  66.15007         23.25575   4.470000  33.36440  65.79526  28.71193  65.43155  28.70974  66.50513  33.36221  66.86884
      17  31.03488  67.22460         23.27514   4.470000  33.36221  66.86884  28.70974  66.50513  28.70754  67.58060  33.36002  67.94431
      17  31.03268  68.30101         23.29454   4.470000  33.36002  67.94431  28.70754  67.58060  28.70535  68.65797  33.35782  69.02167
      17  31.03048  69.37932         23.31396   4.470000  33.35782  69.02167  28.70535  68.65797  28.70315  69.73723  33.35562  70.10093
      17  31.02828  70.45953         23.33340   4.470000  33.35562  70.10093  28.70315  69.73723  28.70095  70.81838  33.35342  71.18209
      17  31.02608  71.54164         23.35285   4.470000  33.35342  71.18209  28.70095  70.81838  28.69875  71.90144  33.35122  72.26514
      17  31.02388  72.62565         23.37232   4.470000  33.35122  72.26514  28.69875  71.90144  28.69654  72.98640  33.34901  73.35011
      17  31.02167  73.71156         23.39180   4.470000  33.34901  73.35011  28.69654  72.98640  28.69433  74.07327  33.34681  74.43698
      17  31.01947  74.79939         23.41130   4.470000  33.34681  74.43698  28.69433  74.07327  28.69213  75.16205  33.34460  75.52576
      17  31.01726  75.88912         23.43082   4.470000  33.34460  75.52576  28.69213  75.16205  28.68992  76.25274  33.34239  76.61645
      17  31.01505  76.98078         23.45036   4.470000  33.34239  76.61645  28.68992  76.25274  28.68771  77.34536  33.34018  77.70906
      17  31.01283  78.07435         23.46991   4.470000  33.34018  77.70906  28.68771  77.34536  28.68549  78.43989  33.33796  78.80359
      17  31.01062  79.16984         23.48947   4.470000  33.33796  78.80359  28.68549  78.43989  28.68328  79.53635  33.33575  79.90005
      17  31.00840  80.26726         23.50905   4.470000  33.33575  79.90005  28.68328  79.53635  28.68106  80.63473  33.33353  80.99844
      17  31.00619  81.36661         23.52865   4.470000  33.33353  80.99844  28.68106  80.63473  28.67884  81.73505  33.33131  82.09875
      17  31.00397  82.46790         23.54827   4.470000  33.33131  82.09875  28.67884  81.73505  28.67662  82.83729  33.32909  83.20100
      17  31.00174  83.57111         23.56790   4.470000  33.32909  83.20100  28.67662  82.83729  28.67440  83.94148  33.32687  84.30519
      17  30.99952  84.67627         23.58755   4.470000  33.32687  84.30519  28.67440  83.94148  28.67217  85.04761  33.32464  85.41131
      17  30.99729  85.78337         23.60721   4.470000  33.32464  85.41131  28.67217  85.04761  28.66994  86.15568  33.32242  86.51939
      17  30.99507  86.89241         23.62689   4.470000  33.32242  86.51939  28.66994  86.15568  28.66772  87.26570  33.32019  87.62940
      17  30.99284  88.00341         23.64659   4.470000  33.32019  87.62940  28.66772  87.26570  28.66549  88.37767  33.31796  88.74137
      17  30.99061  89.11635         23.66631   4.470000  33.31796  88.74137  28.66549  88.37767  28.66325  89.49159  33.31573  89.85530
      17  30.98837  90.23125         23.68604   4.470000  33.31573  89.85530  28.66325  89.49159  28.66102  90.60747  33.31349  90.97118
      17  30.98614  91.34812         23.70578   4.470000  33.31349  90.97118  28.66102  90.60747  28.65878  91.72531  33.31126  92.08902
      17  30.98390  92.46694         23.72555   4.470000  33.31126  92.08902  28.65878  91.72531  28.65655  92.84512  33.30902  93.20882
      17  30.98166  93.58773         23.74532   4.470000  33.30902  93.20882  28.65655  92.84512  28.65431  93.96689  33.30678  94.33060
      17  30.97942  94.71048         23.76512   4.470000  33.30678  94.33060  28.65431  93.96689  28.65207  95.09063  33.30454  95.45434
      17  30.97718  95.83521         23.78493   4.470000  33.30454  95.45434  28.65207  95.09063  28.64982  96.21635  33.30229  96.58006
      17  30.97494  96.96192         23.80476   4.470000  33.30229  96.58006  28.64982  96.21635  28.64758  97.34404  33.30005  97.70775
      17  30.97269  98.09060         23.82461   4.470000  33.30005  97.70775  28.64758  97.34404  28.64533  98.47372  33.29780  98.83743
      17  30.97044  99.22127         23.84447   4.470000  33.29780  98.83743  28.64533  98.47372  28.64308  99.60538  33.29555  99.96909
      17  30.96819 100.35393         23.86435   4.470000  33.29555  99.96909  28.64308  99.60538  28.64083 100.73903  33.29330 101.10273
      17  30.96594 101.48857         23.88424   4.470000  33.29330 101.10273  28.64083 100.73903  28.63858 101.87466  33.29105 102.23837
      17  30.96369 102.62520         23.90416   4.470000  33.29105 102.23837  28.63858 101.87466  28.63632 103.01230  33.28880 103.37600
      17  30.96143 103.76383         23.92408   4.470000  33.28880 103.37600  28.63632 103.01230  28.63407 104.15193  33.28654 104.51563
      17  30.95917 104.90447         23.94403   4.470000  33.28654 104.51563  28.63407 104.15193  28.63181 105.29356  33.28428 105.65727
      17  30.95691 106.04710         23.96399   4.470000  33.28428 105.65727  28.63181 105.29356  28.62955 106.43720  33.28202 106.80090
      17  30.95465 107.19174         23.98397   4.470000  33.28202 106.80090  28.62955 106.43720  28.62729 107.58284  33.27976 107.94655
      17  30.95239 108.33839         24.00396   4.470000  33.27976 107.94655  28.62729 107.58284  28.62502 108.73050  33.27749 109.09420
      17  30.95013 109.48705         24.02398   4.470000  33.27749 109.09420  28.62502 108.73050  28.62276 109.88017  33.27523 110.24388
      17  30.94786 110.63773         24.04400   4.470000  33.27523 110.24388  28.62276 109.88017  28.62049 111.03186  33.27296 111.39557
      17  30.94559 111.79044         24.06405   4.470000  33.27296 111.39557  28.62049 111.03186  28.61822 112.18557  33.27069 112.54928
      17  30.94332 112.94516         24.08411   4.470000  33.27069 112.54928  28.61822 112.18557  28.61595 113.34131  33.26842 113.70501
      17  30.94105 114.10191         24.10419   4.470000  33.26842 113.70501  28.61595 113.34131  28.61367 114.49907  33.26615 114.86278
      17  30.93877 115.26069         24.12428   4.470000  33.26615 114.86278  28.61367 114.49907  28.61140 115.65887  33.26387 116.02258
      17  30.93650 116.42151         24.14440   4.470000  33.26387 116.02258  28.61140 115.65887  28.60912 116.82070  33.26159 117.18441
      17  30.93422 117.58436         24.16453   4.470000  33.26159 117.18441  28.60912 116.82070  28.60684 117.98458  33.25931 118.34828
      17  30.93194 118.74925         24.18467   4.470000  33.25931 118.34828  28.60684 117.98458  28.60456 119.15049  33.25703 119.51420
      17  30.92966 119.91619         24.20483   4.470000  33.25703 119.51420  28.60456 119.15049  28.60228 120.31846  33.25475 120.68216
      17  30.92737 121.08518         24.22501   4.470000  33.25475 120.68216  28.60228 120.31846  28.59999 121.48847  33.25247 121.85217
      17  30.92509 122.25622         24.24521   4.470000  33.25247 121.85217  28.59999 121.48847  28.59771 122.66053  33.25018 123.02424
      17  30.92280 123.42931         24.26542   4.470000  33.25018 123.02424  28.59771 122.66053  28.59542 123.83465  33.24789 124.19836
      17  30.92051 124.60446         24.28565   4.470000  33.24789 124.19836  28.59542 123.83465  28.59313 125.01083  33.24560 125.37454
      17  30.91822 125.78168         24.30590   4.470000  33.24560 125.37454  28.59313 125.01083  28.59084 126.18908  33.24331 126.55279
      17  30.91592 126.96095         24.32616   4.470000  33.24331 126.55279  28.59084 126.18908  28.58854 127.36939  33.24101 127.73310
      17  30.91363 128.14230         24.34644   4.470000  33.24101 127.73310  28.58854 127.36939  28.58625 128.55178  33.23872 128.91548
      16  41.14379   0.23893         23.41130   5.590000  43.46299  -0.02079  38.81852  -0.47537  38.82459   0.49888  43.46907   0.95346
      16  41.14987   1.21405         23.43082   5.590000  43.46907   0.95346  38.82459   0.49888  38.83068   1.47487  43.47515   1.92944
      16  41.15596   2.19090         23.45036   5.590000  43.47515   1.92944  38.83068   1.47487  38.83676   2.45259  43.48124   2.90717
      16  41.16205   3.16949         23.46991   5.590000  43.48124   2.90717  38.83676   2.45259  38.84286   3.43205  43.48733   3.88663
      16  41.16814   4.14983         23.48947   5.590000  43.48733   3.88663  38.84286   3.43205  38.84895   4.41326  43.49343   4.86784
      16  41.17424   5.13191         23.50905   5.590000  43.49343   4.86784  38.84895   4.41326  38.85506   5.39621  43.49953   5.85079
      16  41.18035   6.11574         23.52865   5.590000  43.49953   5.85079  38.85506   5.39621  38.86116   6.38092  43.50564   6.83549
      16  41.18646   7.10132         23.54827   5.590000  43.50564   6.83549  38.86116   6.38092  38.86728   7.36737  43.51175   7.82195
      16  41.19257   8.08865         23.56790   5.590000  43.51175   7.82195  38.86728   7.36737  38.87340   8.35558  43.51787   8.81016
      16  41.19869   9.07774         23.58755   5.590000  43.51787   8.81016  38.87340   8.35558  38.87952   9.34556  43.52399   9.80013
      16  41.20482  10.06859         23.60721   5.590000  43.52399   9.80013  38.87952   9.34556  38.88565  10.33729  43.53012  10.79187
      16  41.21095  11.06121         23.62689   5.590000  43.53012  10.79187  38.88565  10.33729  38.89178  11.33079  43.53625  11.78536
      16  41.21709  12.05559         23.64659   5.590000  43.53625  11.78536  38.89178  11.33079  38.89792  12.32605  43.54239  12.78063
      16  41.22323  13.05174         23.66631   5.590000  43.54239  12.78063  38.89792  12.32605  38.90406  13.32309  43.54854  13.77767
      16  41.22937  14.04967         23.68604   5.590000  43.54854  13.77767  38.90406  13.32309  38.91021  14.32190  43.55468  14.77648
      16  41.23552  15.04936         23.70578   5.590000  43.55468  14.77648  38.91021  14.32190  38.91636  15.32249  43.56084  15.77707
      16  41.24168  16.05084         23.72555   5.590000  43.56084  15.77707  38.91636  15.32249  38.92252  16.32486  43.56700  16.77943
      16  41.24784  17.05410         23.74532   5.590000  43.56700  16.77943  38.92252  16.32486  38.92869  17.32901  43.57316  17.78358
      16  41.25401  18.05915         23.76512   5.590000  43.57316  17.78358  38.92869  17.32901  38.93486  18.33495  43.57933  18.78952
      16  41.26018  19.06598         23.78493   5.590000  43.57933  18.78952  38.93486  18.33495  38.94103  19.34267  43.58550  19.79725
      16  41.26636  20.07460         23.80476   5.590000  43.58550  19.79725  38.94103  19.34267  38.94721  20.35219  43.59168  20.80677
      16  41.27254  21.08502         23.82461   5.590000  43.59168  20.80677  38.94721  20.35219  38.95339  21.36351  43.59787  21.81808
      16  41.27873  22.09723         23.84447   5.590000  43.59787  21.81808  38.95339  21.36351  38.95958  22.37662  43.60406  22.83120
      16  41.28492  23.11125         23.86435   5.590000  43.60406  22.83120  38.95958  22.37662  38.96578  23.39154  43.61025  23.84611
      16  41.29112  24.12707         23.88424   5.590000  43.61025  23.84611  38.96578  23.39154  38.97198  24.40826  43.61645  24.86283
      16  41.29732  25.14469         23.90416   5.590000  43.61645  24.86283  38.97198  24.40826  38.97818  25.42679  43.62266  25.88136
      16  41.30353  26.16412         23.92408   5.590000  43.62266  25.88136  38.97818  25.42679  38.98439  26.44713  43.62887  26.90170
      16  41.30974  27.18537         23.94403   5.590000  43.62887  26.90170  38.98439  26.44713  38.99061  27.46928  43.63508  27.92386
      16  41.31596  28.20843         23.96399   5.590000  43.63508  27.92386  38.99061  27.46928  38.99683  28.49325  43.64130  28.94783
      16  41.32218  29.23331         23.98397   5.590000  43.64130  28.94783  38.99683  28.49325  39.00306  29.51904  43.64753  29.97362
      16  41.32841  30.26002         24.00396   5.590000  43.64753  29.97362  39.00306  29.51904  39.00929  30.54666  43.65376  31.00123
      16  41.33464  31.28854         24.02398   5.590000  43.65376  31.00123  39.00929  30.54666  39.01552  31.57610  43.66000  32.03067
      16  41.34088  32.31890         24.04400   5.590000  43.66000  32.03067  39.01552  31.57610  39.02177  32.60737  43.66624  33.06194
      16  41.34713  33.35109         24.06405   5.590000  43.66624  33.06194  39.02177  32.60737  39.02801  33.64047  43.67249  34.09505
      16  41.35337  34.38511         24.08411   5.590000  43.67249  34.09505  39.02801  33.64047  39.03426  34.67541  43.67874  35.12999
      16  41.35963  35.42097         24.10419   5.590000  43.67874  35.12999  39.03426  34.67541  39.04052  35.71219  43.68499  36.16677
      16  41.36589  36.45867         24.12428   5.590000  43.68499  36.16677  39.04052  35.71219  39.04678  36.75081  43.69126  37.20539
      16  41.37215  37.49821         24.14440   5.590000  43.69126  37.20539  39.04678  36.75081  39.05305  37.79128  43.69752  38.24586
      16  41.37842  38.53960         24.16453   5.590000  43.69752  38.24586  39.05305  37.79128  39.05932  38.83360  43.70380  39.28817
      16  41.38470  39.58285         24.18467   5.590000  43.70380  39.28817  39.05932  38.83360  39.06560  39.87776  43.71008  40.33234
      16  41.39098  40.62794         24.20483   5.590000  43.71008  40.33234  39.06560  39.87776  39.07188  40.92379  43.71636  41.37836
      16  41.39727  41.67489         24.22501   5.590000  43.71636  41.37836  39.07188  40.92379  39.07817  41.97167  43.72265  42.42625
      16  41.40356  42.72371         24.24521   5.590000  43.72265  42.42625  39.07817  41.97167  39.08447  43.02141  43.72894  43.47599
      16  41.40985  43.77438         24.26542   5.590000  43.72894  43.47599  39.08447  43.02141  39.09077  44.07302  43.73524  44.52760
      16  41.41616  44.82692         24.28565   5.590000  43.73524  44.52760  39.09077  44.07302  39.09707  45.12650  43.74154  45.58107
      16  41.42246  45.88133         24.30590   5.590000  43.74154  45.58107  39.09707  45.12650  39.10338  46.18184  43.74785  46.63642
      16  41.42877  46.93762         24.32616   5.590000  43.74785  46.63642  39.10338  46.18184  39.10969  47.23906  43.75417  47.69364
      16  41.43509  47.99578         24.34644   5.590000  43.75417  47.69364  39.10969  47.23906  39.11601  48.29816  43.76049  48.75274
      16  41.44141  49.05581         24.36674   5.590000  43.76049  48.75274  39.11601  48.29816  39.12234  49.35914  43.76681  49.81372
      16  41.44774  50.11774         24.38705   5.590000  43.76681  49.81372  39.12234  49.35914  39.12867  50.42200  43.77314  50.87658
      16  41.45408  51.18154         24.40738   5.590000  43.77314  50.87658  39.12867  50.42200  39.13501  51.48675  43.77948  51.94133
      16  41.46041  52.24724         24.42773   5.590000  43.77948  51.94133  39.13501  51.48675  39.14135  52.55340  43.78582  53.00797
      16  41.46676  53.31483         24.44810   5.590000  43.78582  53.00797  39.14135  52.55340  39.14769  53.62193  43.79217  54.07651
      16  41.47311  54.38431         24.46848   5.590000  43.79217  54.07651  39.14769  53.62193  39.15405  54.69236  43.79852  55.14694
      16  41.47946  55.45569         24.48888   5.590000  43.79852  55.14694  39.15405  54.69236  39.16040  55.76469  43.80488  56.21927
      16  41.48582  56.52897         24.50929   5.590000  43.80488  56.21927  39.16040  55.76469  39.16676  56.83893  43.81124  57.29351
      16  41.49219  57.60416         24.52973   5.590000  43.81124  57.29351  39.16676  56.83893  39.17313  57.91507  43.81761  58.36965
      16  41.49856  58.68126         24.55018   5.590000  43.81761  58.36965  39.17313  57.91507  39.17951  58.99312  43.82398  59.44770
      16  41.50493  59.76027         24.57064   5.590000  43.82398  59.44770  39.17951  58.99312  39.18588  60.07309  43.83036  60.52767
      16  41.51131  60.84119         24.59113   5.590000  43.83036  60.52767  39.18588  60.07309  39.19227  61.15497  43.83674  61.60955
      16  41.51770  61.92403         24.61163   5.590000  43.83674  61.60955  39.19227  61.15497  39.19866  62.23877  43.84313  62.69335
      16  41.52409  63.00880         24.63215   5.590000  43.84313  62.69335  39.19866  62.23877  39.20505  63.32450  43.84952  63.77908
      16  41.53049  64.09549         24.65268   5.590000  43.84952  63.77908  39.20505  63.32450  39.21145  64.41215  43.85592  64.86673
      16  41.53689  65.18410         24.67323   5.590000  43.85592  64.86673  39.21145  64.41215  39.21785  65.50173  43.86233  65.95631
      16  41.54330  66.27465         24.69380   5.590000  43.86233  65.95631  39.21785  65.50173  39.22426  66.59325  43.86874  67.04782
      16  41.54971  67.36713         24.71439   5.590000  43.86874  67.04782  39.22426  66.59325  39.23068  67.68670  43.87515  68.14128
      16  41.55613  68.46156         24.73499   5.590000  43.87515  68.14128  39.23068  67.68670  39.23710  68.78209  43.88157  69.23667
      16  41.56255  69.55792         24.75561   5.590000  43.88157  69.23667  39.23710  68.78209  39.24353  69.87943  43.88800  70.33400
      16  41.56898  70.65623         24.77625   5.590000  43.88800  70.33400  39.24353  69.87943  39.24996  70.97871  43.89443  71.43328
      16  41.57541  71.75648         24.79691   5.590000  43.89443  71.43328  39.24996  70.97871  39.25640  72.07994  43.90087  72.53451
      16  41.58185  72.85869         24.81758   5.590000  43.90087  72.53451  39.25640  72.07994  39.26284  73.18312  43.90731  73.63770
      16  41.58830  73.96285         24.83827   5.590000  43.90731  73.63770  39.26284  73.18312  39.26929  74.28826  43.91376  74.74284
      16  41.59475  75.06897         24.85898   5.590000  43.91376  74.74284  39.26929  74.28826  39.27574  75.39536  43.92021  75.84994
      16  41.60120  76.17705         24.87970   5.590000  43.92021  75.84994  39.27574  75.39536  39.28220  76.50443  43.92667  76.95900
      16  41.60767  77.28710         24.90044   5.590000  43.92667  76.95900  39.28220  76.50443  39.28866  77.61546  43.93313  78.07003
      16  41.61413  78.39911         24.92120   5.590000  43.93313  78.07003  39.28866  77.61546  39.29513  78.72846  43.93960  79.18303
      16  41.62060  79.51310         24.94198   5.590000  43.93960  79.18303  39.29513  78.72846  39.30160  79.84343  43.94608  80.29801
      16  41.62708  80.62906         24.96277   5.590000  43.94608  80.29801  39.30160  79.84343  39.30808  80.96038  43.95256  81.41496
      16  41.63356  81.74700         24.98358   5.590000  43.95256  81.41496  39.30808  80.96038  39.31457  82.07931  43.95904  82.53389
      16  41.64005  82.86692         25.00441   5.590000  43.95904  82.53389  39.31457  82.07931  39.32106  83.20022  43.96553  83.65480
      16  41.64655  83.98883         25.02526   5.590000  43.96553  83.65480  39.32106  83.20022  39.32756  84.32313  43.97203  84.77770
      16  41.65304  85.11273         25.04612   5.590000  43.97203  84.77770  39.32756  84.32313  39.33406  85.44802  43.97853  85.90259
      16  41.65955  86.23862         25.06700   5.590000  43.97853  85.90259  39.33406  85.44802  39.34057  86.57490  43.98504  87.02948
      16  41.66606  87.36650         25.08790   5.590000  43.98504  87.02948  39.34057  86.57490  39.34708  87.70378  43.99155  88.15836
      16  41.67257  88.49638         25.10882   5.590000  43.99155  88.15836  39.34708  87.70378  39.35360  88.83467  43.99807  89.28924
      16  41.67909  89.62827         25.12975   5.590000  43.99807  89.28924  39.35360  88.83467  39.36012  89.96755  44.00459  90.42213
      16  41.68562  90.76216         25.15070   5.590000  44.00459  90.42213  39.36012  89.96755  39.36665  91.10245  44.01112  91.55703
      16  41.69215  91.89806         25.17167   5.590000  44.01112  91.55703  39.36665  91.10245  39.37318  92.23936  44.01766  92.69393
      16  41.69869  93.03597         25.19265   5.590000  44.01766  92.69393  39.37318  92.23936  39.37972  93.37828  44.02420  93.83285
      16  41.70523  94.17590         25.21365   5.590000  44.02420  93.83285  39.37972  93.37828  39.38627  94.51921  44.03074  94.97379
      16  41.71178  95.31785         25.23467   5.590000  44.03074  94.97379  39.38627  94.51921  39.39282  95.66217  44.03729  96.11675
      16  41.71833  96.46182         25.25571   5.590000  44.03729  96.11675  39.39282  95.66217  39.39937  96.80716  44.04385  97.26173
      16  41.72489  97.60782         25.27677   5.590000  44.04385  97.26173  39.39937  96.80716  39.40594  97.95417  44.05041  98.40875
      16  41.73146  98.75584         25.29784   5.590000  44.05041  98.40875  39.40594  97.95417  39.41250  99.10321  44.05698  99.55779
      16  41.73803  99.90591         25.31893   5.590000  44.05698  99.55779  39.41250  99.10321  39.41907 100.25429  44.06355 100.70887
      16  41.74460 101.05801         25.34004   5.590000  44.06355 100.70887  39.41907 100.25429  39.42565 101.40741  44.07013 101.86199
      16  41.75118 102.21214         25.36116   5.590000  44.07013 101.86199  39.42565 101.40741  39.43224 102.56257  44.07671 103.01715
      16  41.75777 103.36833         25.38231   5.590000  44.07671 103.01715  39.43224 102.56257  39.43882 103.71978  44.08330 104.17435
      16  41.76436 104.52656         25.40347   5.590000  44.08330 104.17435  39.43882 103.71978  39.44542 104.87903  44.08989 105.33361
      16  41.77096 105.68684         25.42465   5.590000  44.08989 105.33361  39.44542 104.87903  39.45202 106.04034  44.09649 106.49492
      16  41.77756 106.84918         25.44584   5.590000  44.09649 106.49492  39.45202 106.04034  39.45862 107.20371  44.10310 107.65828
      16  41.78417 108.01357         25.46706   5.590000  44.10310 107.65828  39.45862 107.20371  39.46524 108.36913  44.10971 108.82371
      16  41.79078 109.18003         25.48829   5.590000  44.10971 108.82371  39.46524 108.36913  39.47185 109.53662  44.11633 109.99120
      16  41.79740 110.34855         25.50954   5.590000  44.11633 109.99120  39.47185 109.53662  39.47847 110.70617  44.12295 111.16075
      16  41.80402 111.51914         25.53080   5.590000  44.12295 111.16075  39.47847 110.70617  39.48510 111.87780  44.12957 112.33238
      16  41.81065 112.69180         25.55209   5.590000  44.12957 112.33238  39.48510 111.87780  39.49173 113.05150  44.13621 113.50608
      16  41.81729 113.86654         25.57339   5.590000  44.13621 113.50608  39.49173 113.05150  39.49837 114.22728  44.14285 114.68185
      16  41.82393 115.04336         25.59471   5.590000  44.14285 114.68185  39.49837 114.22728  39.50502 115.40513  44.14949 115.85971
      16  41.83058 116.22226         25.61605   5.590000  44.14949 115.85971  39.50502 115.40513  39.51167 116.58508  44.15614 117.03965
      16  41.83723 117.40324         25.63740   5.590000  44.15614 117.03965  39.51167 116.58508  39.51832 117.76711  44.16280 118.22168
      16  41.84389 118.58632         25.65878   5.590000  44.16280 118.22168  39.51832 117.76711  39.52498 118.95123  44.16946 119.40581
      16  41.85055 119.77149         25.68017   5.590000  44.16946 119.40581  39.52498 118.95123  39.53165 120.13745  44.17612 120.59203
      16  41.85722 120.95876         25.70158   5.590000  44.17612 120.59203  39.53165 120.13745  39.53832 121.32577  44.18279 121.78034
      16  41.86390 122.14813         25.72300   5.590000  44.18279 121.78034  39.53832 121.32577  39.54500 122.51619  44.18947 122.97076
      16  41.87058 123.33960         25.74445   5.590000  44.18947 122.97076  39.54500 122.51619  39.55168 123.70871  44.19615 124.16329
      16  41.87726 124.53318         25.76591   5.590000  44.19615 124.16329  39.55168 123.70871  39.55837 124.90335  44.20284 125.35793
      16  41.88395 125.72887         25.78739   5.590000  44.20284 125.35793  39.55837 124.90335  39.56506 126.10010  44.20954 126.55468
      16  41.89065 126.92668         25.80889   5.590000  44.20954 126.55468  39.56506 126.10010  39.57176 127.29897  44.21624 127.75354
      16  41.89735 128.12661         25.83041   5.590000  44.21624 127.75354  39.57176 127.29897  39.57847 128.49996  44.22294 128.95453
      16  41.90406 129.32866         25.85194   5.590000  44.22294 128.95453  39.57847 128.49996  39.58518 129.70307  44.22965 130.15764
      16  41.91077 130.53284         25.87349   5.590000  44.22965 130.15764  39.58518 129.70307  39.59189 130.90831  44.23637 131.36288
      16  41.91749 131.73914         25.89506   5.590000  44.23637 131.36288  39.59189 130.90831  39.59862 132.11568  44.24309 132.57026
      15  52.20540   0.21395         24.94198   6.820000  54.51470   0.00565  49.88105  -0.54852  49.89609   0.42249  54.52974   0.97666
      15  52.22044   1.18583         24.96277   6.820000  54.52974   0.97666  49.89609   0.42249  49.91114   1.39522  54.54479   1.94939
      15  52.23550   2.15943         24.98358   6.820000  54.54479   1.94939  49.91114   1.39522  49.92621   2.36969  54.55985   2.92386
      15  52.25057   3.13476         25.00441   6.820000  54.55985   2.92386  49.92621   2.36969  49.94128   3.34589  54.57493   3.90006
      15  52.26565   4.11182         25.02526   6.820000  54.57493   3.90006  49.94128   3.34589  49.95637   4.32382  54.59002   4.87799
      15  52.28074   5.09062         25.04612   6.820000  54.59002   4.87799  49.95637   4.32382  49.97147   5.30349  54.60512   5.85766
      15  52.29585   6.07116         25.06700   6.820000  54.60512   5.85766  49.97147   5.30349  49.98659   6.28490  54.62023   6.83907
      15  52.31097   7.05345         25.08790   6.820000  54.62023   6.83907  49.98659   6.28490  50.00171   7.26806  54.63536   7.82223
      15  52.32610   8.03748         25.10882   6.820000  54.63536   7.82223  50.00171   7.26806  50.01685   8.25296  54.65050   8.80713
      15  52.34125   9.02325         25.12975   6.820000  54.65050   8.80713  50.01685   8.25296  50.03200   9.23961  54.66565   9.79378
      15  52.35641  10.01078         25.15070   6.820000  54.66565   9.79378  50.03200   9.23961  50.04717  10.22802  54.68081  10.78219
      15  52.37158  11.00007         25.17167   6.820000  54.68081  10.78219  50.04717  10.22802  50.06234  11.21818  54.69599  11.77235
      15  52.38676  11.99111         25.19265   6.820000  54.69599  11.77235  50.06234  11.21818  50.07753  12.21010  54.71118  12.76427
      15  52.40196  12.98391         25.21365   6.820000  54.71118  12.76427  50.07753  12.21010  50.09273  13.20378  54.72638  13.75795
      15  52.41716  13.97847         25.23467   6.820000  54.72638  13.75795  50.09273  13.20378  50.10795  14.19923  54.74160  14.75340
      15  52.43239  14.97480         25.25571   6.820000  54.74160  14.75340  50.10795  14.19923  50.12318  15.19644  54.75682  15.75061
      15  52.44762  15.97290         25.27677   6.820000  54.75682  15.75061  50.12318  15.19644  50.13842  16.19543  54.77206  16.74960
      15  52.46287  16.97278         25.29784   6.820000  54.77206  16.74960  50.13842  16.19543  50.15367  17.19619  54.78732  17.75036
      15  52.47813  17.97443         25.31893   6.820000  54.78732  17.75036  50.15367  17.19619  50.16894  18.19873  54.80258  18.75290
      15  52.49340  18.97786         25.34004   6.820000  54.80258  18.75290  50.16894  18.19873  50.18421  19.20305  54.81786  19.75722
      15  52.50868  19.98307         25.36116   6.820000  54.81786  19.75722  50.18421  19.20305  50.19950  20.20915  54.83315  20.76332
      15  52.52398  20.99006         25.38231   6.820000  54.83315  20.76332  50.19950  20.20915  50.21481  21.21704  54.84845  21.77121
      15  52.53929  21.99884         25.40347   6.820000  54.84845  21.77121  50.21481  21.21704  50.23013  22.22672  54.86377  22.78088
      15  52.55461  23.00942         25.42465   6.820000  54.86377  22.78088  50.23013  22.22672  50.24545  23.23819  54.87910  23.79236
      15  52.56995  24.02178         25.44584   6.820000  54.87910  23.79236  50.24545  23.23819  50.26080  24.25145  54.89444  24.80562
      15  52.58530  25.03595         25.46706   6.820000  54.89444  24.80562  50.26080  24.25145  50.27615  25.26652  54.90980  25.82069
      15  52.60066  26.05191         25.48829   6.820000  54.90980  25.82069  50.27615  25.26652  50.29152  26.28338  54.92517  26.83755
      15  52.61603  27.06968         25.50954   6.820000  54.92517  26.83755  50.29152  26.28338  50.30690  27.30205  54.94055  27.85622
      15  52.63142  28.08926         25.53080   6.820000  54.94055  27.85622  50.30690  27.30205  50.32229  28.32253  54.95594  28.87670
      15  52.64682  29.11064         25.55209   6.820000  54.95594  28.87670  50.32229  28.32253  50.33770  29.34482  54.97135  29.89899
      15  52.66223  30.13384         25.57339   6.820000  54.97135  29.89899  50.33770  29.34482  50.35312  30.36893  54.98676  30.92310
      15  52.67766  31.15885         25.59471   6.820000  54.98676  30.92310  50.35312  30.36893  50.36855  31.39485  55.00220  31.94902
      15  52.69310  32.18568         25.61605   6.820000  55.00220  31.94902  50.36855  31.39485  50.38400  32.42259  55.01764  32.97676
      15  52.70855  33.21434         25.63740   6.820000  55.01764  32.97676  50.38400  32.42259  50.39945  33.45216  55.03310  34.00633
      15  52.72401  34.24482         25.65878   6.820000  55.03310  34.00633  50.39945  33.45216  50.41492  34.48355  55.04857  35.03772
      15  52.73949  35.27712         25.68017   6.820000  55.04857  35.03772  50.41492  34.48355  50.43041  35.51677  55.06405  36.07094
      15  52.75498  36.31126         25.70158   6.820000  55.06405  36.07094  50.43041  35.51677  50.44590  36.55183  55.07955  37.10600
      15  52.77048  37.34724         25.72300   6.820000  55.07955  37.10600  50.44590  36.55183  50.46141  37.58872  55.09506  38.14289
      15  52.78600  38.38505         25.74445   6.820000  55.09506  38.14289  50.46141  37.58872  50.47693  38.62745  55.11058  39.18162
      15  52.80152  39.42470         25.76591   6.820000  55.11058  39.18162  50.47693  38.62745  50.49247  39.66802  55.12612  40.22219
      15  52.81707  40.46619         25.78739   6.820000  55.12612  40.22219  50.49247  39.66802  50.50802  40.71044  55.14166  41.26461
      15  52.83262  41.50954         25.80889   6.820000  55.14166  41.26461  50.50802  40.71044  50.52358  41.75471  55.15722  42.30888
      15  52.84819  42.55473         25.83041   6.820000  55.15722  42.30888  50.52358  41.75471  50.53915  42.80083  55.17280  43.35500
      15  52.86377  43.60178         25.85194   6.820000  55.17280  43.35500  50.53915  42.80083  50.55474  43.84880  55.18839  44.40297
      15  52.87936  44.65068         25.87349   6.820000  55.18839  44.40297  50.55474  43.84880  50.57034  44.89864  55.20399  45.45281
      15  52.89497  45.70145         25.89506   6.820000  55.20399  45.45281  50.57034  44.89864  50.58595  45.95033  55.21960  46.50450
      15  52.91059  46.75407         25.91665   6.820000  55.21960  46.50450  50.58595  45.95033  50.60158  47.00389  55.23522  47.55806
      15  52.92622  47.80857         25.93826   6.820000  55.23522  47.55806  50.60158  47.00389  50.61722  48.05932  55.25086  48.61349
      15  52.94187  48.86493         25.95988   6.820000  55.25086  48.61349  50.61722  48.05932  50.63287  49.11662  55.26652  49.67079
      15  52.95752  49.92316         25.98152   6.820000  55.26652  49.67079  50.63287  49.11662  50.64853  50.17579  55.28218  50.72996
      15  52.97320  50.98328         26.00318   6.820000  55.28218  50.72996  50.64853  50.17579  50.66421  51.23684  55.29786  51.79101
      15  52.98888  52.04527         26.02486   6.820000  55.29786  51.79101  50.66421  51.23684  50.67990  52.29977  55.31355  52.85394
      15  53.00458  53.10914         26.04656   6.820000  55.31355  52.85394  50.67990  52.29977  50.69561  53.36459  55.32925  53.91876
      15  53.02029  54.17490         26.06827   6.820000  55.32925  53.91876  50.69561  53.36459  50.71133  54.43129  55.34497  54.98546
      15  53.03601  55.24255         26.09001   6.820000  55.34497  54.98546  50.71133  54.43129  50.72706  55.49988  55.36070  56.05405
      15  53.05175  56.31209         26.11176   6.820000  55.36070  56.05405  50.72706  55.49988  50.74280  56.57037  55.37645  57.12454
      15  53.06750  57.38352         26.13353   6.820000  55.37645  57.12454  50.74280  56.57037  50.75856  57.64275  55.39220  58.19692
      15  53.08326  58.45685         26.15531   6.820000  55.39220  58.19692  50.75856  57.64275  50.77433  58.71704  55.40797  59.27121
      15  53.09904  59.53209         26.17712   6.820000  55.40797  59.27121  50.77433  58.71704  50.79011  59.79322  55.42376  60.34739
      15  53.11483  60.60923         26.19894   6.820000  55.42376  60.34739  50.79011  59.79322  50.80591  60.87132  55.43955  61.42549
      15  53.13063  61.68828         26.22078   6.820000  55.43955  61.42549  50.80591  60.87132  50.82172  61.95132  55.45536  62.50549
      15  53.14645  62.76924         26.24264   6.820000  55.45536  62.50549  50.82172  61.95132  50.83754  63.03324  55.47118  63.58741
      15  53.16228  63.85212         26.26452   6.820000  55.47118  63.58741  50.83754  63.03324  50.85337  64.11708  55.48702  64.67125
      15  53.17812  64.93691         26.28642   6.820000  55.48702  64.67125  50.85337  64.11708  50.86922  65.20283  55.50287  65.75700
      15  53.19398  66.02363         26.30833   6.820000  55.50287  65.75700  50.86922  65.20283  50.88508  66.29051  55.51873  66.84468
      15  53.20984  67.11227         26.33026   6.820000  55.51873  66.84468  50.88508  66.29051  50.90096  67.38011  55.53461  67.93428
      15  53.22573  68.20284         26.35221   6.820000  55.53461  67.93428  50.90096  67.38011  50.91685  68.47165  55.55049  69.02581
      15  53.24162  69.29534         26.37418   6.820000  55.55049  69.02581  50.91685  68.47165  50.93275  69.56511  55.56640  70.11928
      15  53.25753  70.38977         26.39617   6.820000  55.56640  70.11928  50.93275  69.56511  50.94867  70.66052  55.58231  71.21469
      15  53.27345  71.48614         26.41818   6.820000  55.58231  71.21469  50.94867  70.66052  50.96459  71.75786  55.59824  72.31203
      15  53.28939  72.58446         26.44020   6.820000  55.59824  72.31203  50.96459  71.75786  50.98054  72.85715  55.61418  73.41131
      15  53.30534  73.68472         26.46224   6.820000  55.61418  73.41131  50.98054  72.85715  50.99649  73.95838  55.63014  74.51255
      15  53.32130  74.78692         26.48431   6.820000  55.63014  74.51255  50.99649  73.95838  51.01246  75.06156  55.64610  75.61573
      15  53.33727  75.89108         26.50639   6.820000  55.64610  75.61573  51.01246  75.06156  51.02844  76.16670  55.66209  76.72087
      15  53.35326  76.99720         26.52848   6.820000  55.66209  76.72087  51.02844  76.16670  51.04444  77.27379  55.67808  77.82796
      15  53.36926  78.10527         26.55060   6.820000  55.67808  77.82796  51.04444  77.27379  51.06044  78.38284  55.69409  78.93701
      15  53.38528  79.21530         26.57273   6.820000  55.69409  78.93701  51.06044  78.38284  51.07646  79.49386  55.71011  80.04802
      15  53.40131  80.32730         26.59489   6.820000  55.71011  80.04802  51.07646  79.49386  51.09250  80.60684  55.72615  81.16101
      15  53.41735  81.44127         26.61706   6.820000  55.72615  81.16101  51.09250  80.60684  51.10855  81.72179  55.74219  82.27596
      15  53.43340  82.55721         26.63925   6.820000  55.74219  82.27596  51.10855  81.72179  51.12461  82.83871  55.75826  83.39288
      15  53.44947  83.67512         26.66146   6.820000  55.75826  83.39288  51.12461  82.83871  51.14068  83.95762  55.77433  84.51178
      15  53.46555  84.79501         26.68368   6.820000  55.77433  84.51178  51.14068  83.95762  51.15677  85.07850  55.79042  85.63267
      15  53.48165  85.91688         26.70593   6.820000  55.79042  85.63267  51.15677  85.07850  51.17288  86.20136  55.80652  86.75553
      15  53.49776  87.04074         26.72819   6.820000  55.80652  86.75553  51.17288  86.20136  51.18899  87.32621  55.82264  87.88038
      15  53.51388  88.16659         26.75048   6.820000  55.82264  87.88038  51.18899  87.32621  51.20512  88.45306  55.83876  89.00723
      15  53.53001  89.29443         26.77278   6.820000  55.83876  89.00723  51.20512  88.45306  51.22126  89.58189  55.85491  90.13606
      15  53.54616  90.42426         26.79510   6.820000  55.85491  90.13606  51.22126  89.58189  51.23742  90.71273  55.87106  91.26690
      15  53.56232  91.55610         26.81744   6.820000  55.87106  91.26690  51.23742  90.71273  51.25359  91.84556  55.88723  92.39973
      15  53.57850  92.68993         26.83979   6.820000  55.88723  92.39973  51.25359  91.84556  51.26977  92.98040  55.90341  93.53457
      15  53.59469  93.82577         26.86217   6.820000  55.90341  93.53457  51.26977  92.98040  51.28596  94.11724  55.91961  94.67141
      15  53.61089  94.96362         26.88456   6.820000  55.91961  94.67141  51.28596  94.11724  51.30217  95.25610  55.93582  95.81027
      15  53.62711  96.10349         26.90698   6.820000  55.93582  95.81027  51.30217  95.25610  51.31840  96.39697  55.95204  96.95114
      15  53.64334  97.24537         26.92941   6.820000  55.95204  96.95114  51.31840  96.39697  51.33463  97.53986  55.96828  98.09403
      15  53.65958  98.38927         26.95186   6.820000  55.96828  98.09403  51.33463  97.53986  51.35088  98.68477  55.98453  99.23894
      15  53.67584  99.53519         26.97433   6.820000  55.98453  99.23894  51.35088  98.68477  51.36715  99.83170  56.00079 100.38587
      15  53.69211 100.68314         26.99682   6.820000  56.00079 100.38587  51.36715  99.83170  51.38343 100.98067  56.01707 101.53484
      15  53.70839 101.83311         27.01932   6.820000  56.01707 101.53484  51.38343 100.98067  51.39972 102.13166  56.03336 102.68583
      15  53.72469 102.98513         27.04185   6.820000  56.03336 102.68583  51.39972 102.13166  51.41602 103.28469  56.04967 103.83886
      15  53.74100 104.13917         27.06439   6.820000  56.04967 103.83886  51.41602 103.28469  51.43234 104.43976  56.06598 104.99393
      15  53.75733 105.29526         27.08696   6.820000  56.06598 104.99393  51.43234 104.43976  51.44867 105.59687  56.08232 106.15104
      15  53.77367 106.45340         27.10954   6.820000  56.08232 106.15104  51.44867 105.59687  51.46502 106.75602  56.09866 107.31019
      15  53.79002 107.61358         27.13214   6.820000  56.09866 107.31019  51.46502 106.75602  51.48137 107.91723  56.11502 108.47140
      15  53.80638 108.77581         27.15476   6.820000  56.11502 108.47140  51.48137 107.91723  51.49775 109.08049  56.13139 109.63466
      15  53.82276 109.94009         27.17740   6.820000  56.13139 109.63466  51.49775 109.08049  51.51413 110.24580  56.14778 110.79997
      15  53.83916 111.10644         27.20005   6.820000  56.14778 110.79997  51.51413 110.24580  51.53053 111.41317  56.16418 111.96734
      15  53.85556 112.27484         27.22273   6.820000  56.16418 111.96734  51.53053 111.41317  51.54695 112.58261  56.18059 113.13678
      15  53.87198 113.44531         27.24543   6.820000  56.18059 113.13678  51.54695 112.58261  51.56337 113.75412  56.19702 114.30828
      15  53.88842 114.61785         27.26814   6.820000  56.19702 114.30828  51.56337 113.75412  51.57981 114.92769  56.21346 115.48186
      15  53.90486 115.79246         27.29087   6.820000  56.21346 115.48186  51.57981 114.92769  51.59627 116.10334  56.22991 116.65751
      15  53.92133 116.96915         27.31362   6.820000  56.22991 116.65751  51.59627 116.10334  51.61274 117.28106  56.24638 117.83523
      15  53.93780 118.14791         27.33640   6.820000  56.24638 117.83523  51.61274 117.28106  51.62922 118.46087  56.26286 119.01504
      15  53.95429 119.32876         27.35919   6.820000  56.26286 119.01504  51.62922 118.46087  51.64571 119.64276  56.27936 120.19693
      15  53.97079 120.51170         27.38199   6.820000  56.27936 120.19693  51.64571 119.64276  51.66222 120.82674  56.29587 121.38091
      15  53.98731 121.69672         27.40482   6.820000  56.29587 121.38091  51.66222 120.82674  51.67875 122.01281  56.31239 122.56698
      15  54.00384 122.88384         27.42767   6.820000  56.31239 122.56698  51.67875 122.01281  51.69528 123.20098  56.32893 123.75515
      15  54.02038 124.07305         27.45054   6.820000  56.32893 123.75515  51.69528 123.20098  51.71184 124.39124  56.34548 124.94541
      15  54.03694 125.26437         27.47342   6.820000  56.34548 124.94541  51.71184 124.39124  51.72840 125.58361  56.36205 126.13778
      15  54.05351 126.45779         27.49632   6.820000  56.36205 126.13778  51.72840 125.58361  51.74498 126.77808  56.37862 127.33225
      15  54.07010 127.65332         27.51925   6.820000  56.37862 127.33225  51.74498 126.77808  51.76157 127.97467  56.39522 128.52883
      15  54.08670 128.85096         27.54219   6.820000  56.39522 128.52883  51.76157 127.97467  51.77818 129.17336  56.41182 129.72753
      15  54.10331 130.05071         27.56515   6.820000  56.41182 129.72753  51.77818 129.17336  51.79480 130.37418  56.42844 130.92835
      15  54.11994 131.25259         27.58813   6.820000  56.42844 130.92835  51.79480 130.37418  51.81143 131.57711  56.44508 132.13128
      14  64.80966   0.03622         26.68368   8.040000  67.10738  -0.12179  62.48659  -0.77449  62.51195   0.19446  67.13274   0.84716
      14  64.83503   1.00603         26.70593   8.040000  67.13274   0.84716  62.51195   0.19446  62.53733   1.16512  67.15812   1.81782
      14  64.86042   1.97755         26.72819   8.040000  67.15812   1.81782  62.53733   1.16512  62.56273   2.13751  67.18352   2.79021
      14  64.88584   2.95081         26.75048   8.040000  67.18352   2.79021  62.56273   2.13751  62.58815   3.11163  67.20895   3.76433
      14  64.91127   3.92579         26.77278   8.040000  67.20895   3.76433  62.58815   3.11163  62.61359   4.08748  67.23439   4.74018
      14  64.93672   4.90250         26.79510   8.040000  67.23439   4.74018  62.61359   4.08748  62.63906   5.06506  67.25985   5.71776
      14  64.96220   5.88095         26.81744   8.040000  67.25985   5.71776  62.63906   5.06506  62.66454   6.04437  67.28534   6.69707
      14  64.98770   6.86114         26.83979   8.040000  67.28534   6.69707  62.66454   6.04437  62.69005   7.02543  67.31085   7.67813
      14  65.01321   7.84306         26.86217   8.040000  67.31085   7.67813  62.69005   7.02543  62.71558   8.00822  67.33638   8.66092
      14  65.03875   8.82673         26.88456   8.040000  67.33638   8.66092  62.71558   8.00822  62.74113   8.99276  67.36193   9.64546
      14  65.06431   9.81214         26.90698   8.040000  67.36193   9.64546  62.74113   8.99276  62.76670   9.97905  67.38750  10.63175
      14  65.08990  10.79930         26.92941   8.040000  67.38750  10.63175  62.76670   9.97905  62.79230  10.96709  67.41309  11.61979
      14  65.11550  11.78822         26.95186   8.040000  67.41309  11.61979  62.79230  10.96709  62.81791  11.95688  67.43871  12.60958
      14  65.14112  12.77889         26.97433   8.040000  67.43871  12.60958  62.81791  11.95688  62.84354  12.94843  67.46434  13.60113
      14  65.16677  13.77132         26.99682   8.040000  67.46434  13.60113  62.84354  12.94843  62.86920  13.94174  67.49000  14.59444
      14  65.19244  14.76551         27.01932   8.040000  67.49000  14.59444  62.86920  13.94174  62.89488  14.93681  67.51568  15.58951
      14  65.21813  15.76146         27.04185   8.040000  67.51568  15.58951  62.89488  14.93681  62.92058  15.93365  67.54138  16.58635
      14  65.24384  16.75918         27.06439   8.040000  67.54138  16.58635  62.92058  15.93365  62.94630  16.93225  67.56710  17.58495
      14  65.26957  17.75867         27.08696   8.040000  67.56710  17.58495  62.94630  16.93225  62.97204  17.93263  67.59284  18.58533
      14  65.29532  18.75994         27.10954   8.040000  67.59284  18.58533  62.97204  17.93263  62.99781  18.93478  67.61860  19.58748
      14  65.32110  19.76298         27.13214   8.040000  67.61860  19.58748  62.99781  18.93478  63.02359  19.93871  67.64439  20.59141
      14  65.34689  20.76780         27.15476   8.040000  67.64439  20.59141  63.02359  19.93871  63.04940  20.94442  67.67019  21.59712
      14  65.37271  21.77440         27.17740   8.040000  67.67019  21.59712  63.04940  20.94442  63.07523  21.95191  67.69602  22.60462
      14  65.39855  22.78279         27.20005   8.040000  67.69602  22.60462  63.07523  21.95191  63.10108  22.96120  67.72187  23.61390
      14  65.42441  23.79296         27.22273   8.040000  67.72187  23.61390  63.10108  22.96120  63.12695  23.97227  67.74774  24.62497
      14  65.45029  24.80493         27.24543   8.040000  67.74774  24.62497  63.12695  23.97227  63.15284  24.98513  67.77364  25.63783
      14  65.47620  25.81869         27.26814   8.040000  67.77364  25.63783  63.15284  24.98513  63.17876  25.99979  67.79955  26.65249
      14  65.50212  26.83425         27.29087   8.040000  67.79955  26.65249  63.17876  25.99979  63.20469  27.01625  67.82549  27.66895
      14  65.52807  27.85162         27.31362   8.040000  67.82549  27.66895  63.20469  27.01625  63.23065  28.03452  67.85145  28.68722
      14  65.55404  28.87078         27.33640   8.040000  67.85145  28.68722  63.23065  28.03452  63.25663  29.05458  67.87743  29.70728
      14  65.58003  29.89175         27.35919   8.040000  67.87743  29.70728  63.25663  29.05458  63.28263  30.07646  67.90343  30.72916
      14  65.60604  30.91454         27.38199   8.040000  67.90343  30.72916  63.28263  30.07646  63.30865  31.10015  67.92945  31.75285
      14  65.63207  31.93913         27.40482   8.040000  67.92945  31.75285  63.30865  31.10015  63.33470  32.12565  67.95549  32.77835
      14  65.65813  32.96554         27.42767   8.040000  67.95549  32.77835  63.33470  32.12565  63.36076  33.15297  67.98156  33.80567
      14  65.68421  33.99377         27.45054   8.040000  67.98156  33.80567  63.36076  33.15297  63.38685  34.18212  68.00765  34.83482
      14  65.71030  35.02383         27.47342   8.040000  68.00765  34.83482  63.38685  34.18212  63.41296  35.21308  68.03376  35.86578
      14  65.73642  36.05571         27.49632   8.040000  68.03376  35.86578  63.41296  35.21308  63.43909  36.24588  68.05989  36.89858
      14  65.76257  37.08942         27.51925   8.040000  68.05989  36.89858  63.43909  36.24588  63.46525  37.28050  68.08604  37.93320
      14  65.78873  38.12496         27.54219   8.040000  68.08604  37.93320  63.46525  37.28050  63.49142  38.31696  68.11222  38.96966
      14  65.81492  39.16234         27.56515   8.040000  68.11222  38.96966  63.49142  38.31696  63.51762  39.35525  68.13841  40.00795
      14  65.84112  40.20155         27.58813   8.040000  68.13841  40.00795  63.51762  39.35525  63.54384  40.39539  68.16463  41.04809
      14  65.86735  41.24261         27.61113   8.040000  68.16463  41.04809  63.54384  40.39539  63.57008  41.43737  68.19087  42.09007
      14  65.89361  42.28551         27.63415   8.040000  68.19087  42.09007  63.57008  41.43737  63.59634  42.48119  68.21714  43.13389
      14  65.91988  43.33025         27.65719   8.040000  68.21714  43.13389  63.59634  42.48119  63.62262  43.52686  68.24342  44.17956
      14  65.94617  44.37685         27.68025   8.040000  68.24342  44.17956  63.62262  43.52686  63.64893  44.57439  68.26973  45.22709
      14  65.97249  45.42531         27.70332   8.040000  68.26973  45.22709  63.64893  44.57439  63.67526  45.62377  68.29605  46.27647
      14  65.99883  46.47562         27.72642   8.040000  68.29605  46.27647  63.67526  45.62377  63.70161  46.67501  68.32240  47.32771
      14  66.02519  47.52779         27.74953   8.040000  68.32240  47.32771  63.70161  46.67501  63.72798  47.72811  68.34878  48.38081
      14  66.05158  48.58183         27.77267   8.040000  68.34878  48.38081  63.72798  47.72811  63.75437  48.78308  68.37517  49.43578
      14  66.07798  49.63773         27.79582   8.040000  68.37517  49.43578  63.75437  48.78308  63.78079  49.83992  68.40159  50.49262
      14  66.10441  50.69550         27.81899   8.040000  68.40159  50.49262  63.78079  49.83992  63.80723  50.89863  68.42802  51.55133
      14  66.13086  51.75514         27.84219   8.040000  68.42802  51.55133  63.80723  50.89863  63.83369  51.95921  68.45448  52.61191
      14  66.15733  52.81667         27.86540   8.040000  68.45448  52.61191  63.83369  51.95921  63.86017  53.02167  68.48097  53.67437
      14  66.18382  53.88007         27.88863   8.040000  68.48097  53.67437  63.86017  53.02167  63.88667  54.08601  68.50747  54.73872
      14  66.21034  54.94535         27.91188   8.040000  68.50747  54.73872  63.88667  54.08601  63.91320  55.15224  68.53400  55.80494
      14  66.23687  56.01253         27.93515   8.040000  68.53400  55.80494  63.91320  55.15224  63.93975  56.22036  68.56055  56.87306
      14  66.26343  57.08159         27.95844   8.040000  68.56055  56.87306  63.93975  56.22036  63.96632  57.29036  68.58712  57.94306
      14  66.29001  58.15254         27.98174   8.040000  68.58712  57.94306  63.96632  57.29036  63.99291  58.36226  68.61371  59.01497
      14  66.31662  59.22539         28.00507   8.040000  68.61371  59.01497  63.99291  58.36226  64.01953  59.43606  68.64032  60.08876
      14  66.34324  60.30014         28.02842   8.040000  68.64032  60.08876  64.01953  59.43606  64.04617  60.51176  68.66696  61.16446
      14  66.36989  61.37679         28.05179   8.040000  68.66696  61.16446  64.04617  60.51176  64.07282  61.58937  68.69362  62.24207
      14  66.39656  62.45535         28.07517   8.040000  68.69362  62.24207  64.07282  61.58937  64.09951  62.66888  68.72030  63.32158
      14  66.42326  63.53581         28.09858   8.040000  68.72030  63.32158  64.09951  62.66888  64.12621  63.75030  68.74701  64.40300
      14  66.44997  64.61819         28.12200   8.040000  68.74701  64.40300  64.12621  63.75030  64.15294  64.83363  68.77373  65.48633
      14  66.47671  65.70248         28.14545   8.040000  68.77373  65.48633  64.15294  64.83363  64.17968  65.91889  68.80048  66.57159
      14  66.50347  66.78870         28.16891   8.040000  68.80048  66.57159  64.17968  65.91889  64.20645  67.00606  68.82725  67.65876
      14  66.53025  67.87683         28.19240   8.040000  68.82725  67.65876  64.20645  67.00606  64.23325  68.09516  68.85404  68.74786
      14  66.55705  68.96689         28.21590   8.040000  68.85404  68.74786  64.23325  68.09516  64.26006  69.18618  68.88086  69.83888
      14  66.58388  70.05888         28.23942   8.040000  68.88086  69.83888  64.26006  69.18618  64.28690  70.27913  68.90770  70.93183
      14  66.61073  71.15280         28.26297   8.040000  68.90770  70.93183  64.28690  70.27913  64.31376  71.37402  68.93456  72.02672
      14  66.63760  72.24866         28.28653   8.040000  68.93456  72.02672  64.31376  71.37402  64.34064  72.47085  68.96144  73.12355
      14  66.66449  73.34645         28.31011   8.040000  68.96144  73.12355  64.34064  72.47085  64.36755  73.56961  68.98834  74.22231
      14  66.69141  74.44619         28.33371   8.040000  68.98834  74.22231  64.36755  73.56961  64.39448  74.67032  69.01527  75.32302
      14  66.71835  75.54787         28.35733   8.040000  69.01527  75.32302  64.39448  74.67032  64.42142  75.77298  69.04222  76.42568
      14  66.74531  76.65150         28.38097   8.040000  69.04222  76.42568  64.42142  75.77298  64.44840  76.87759  69.06919  77.53029
      14  66.77229  77.75709         28.40463   8.040000  69.06919  77.53029  64.44840  76.87759  64.47539  77.98415  69.09619  78.63685
      14  66.79930  78.86463         28.42832   8.040000  69.09619  78.63685  64.47539  77.98415  64.50241  79.09266  69.12321  79.74536
      14  66.82633  79.97412         28.45202   8.040000  69.12321  79.74536  64.50241  79.09266  64.52945  80.20314  69.15024  80.85584
      14  66.85338  81.08558         28.47574   8.040000  69.15024  80.85584  64.52945  80.20314  64.55651  81.31558  69.17731  81.96828
      14  66.88045  82.19901         28.49947   8.040000  69.17731  81.96828  64.55651  81.31558  64.58360  82.42999  69.20439  83.08269
      14  66.90755  83.31440         28.52323   8.040000  69.20439  83.08269  64.58360  82.42999  64.61070  83.54637  69.23150  84.19907
      14  66.93467  84.43177         28.54701   8.040000  69.23150  84.19907  64.61070  83.54637  64.63783  84.66472  69.25863  85.31742
      14  66.96181  85.55111         28.57081   8.040000  69.25863  85.31742  64.63783  84.66472  64.66499  85.78505  69.28578  86.43775
      14  66.98897  86.67243         28.59463   8.040000  69.28578  86.43775  64.66499  85.78505  64.69216  86.90737  69.31296  87.56007
      14  67.01616  87.79573         28.61847   8.040000  69.31296  87.56007  64.69216  86.90737  64.71936  88.03166  69.34016  88.68436
      14  67.04337  88.92102         28.64233   8.040000  69.34016  88.68436  64.71936  88.03166  64.74658  89.15794  69.36738  89.81064
      14  67.07060  90.04830         28.66621   8.040000  69.36738  89.81064  64.74658  89.15794  64.77382  90.28622  69.39462  90.93892
      14  67.09785  91.17757         28.69011   8.040000  69.39462  90.93892  64.77382  90.28622  64.80109  91.41649  69.42188  92.06919
      14  67.12513  92.30884         28.71402   8.040000  69.42188  92.06919  64.80109  91.41649  64.82838  92.54875  69.44917  93.20145
      14  67.15243  93.44210         28.73796   8.040000  69.44917  93.20145  64.82838  92.54875  64.85569  93.68302  69.47648  94.33572
      14  67.17975  94.57737         28.76192   8.040000  69.47648  94.33572  64.85569  93.68302  64.88302  94.81929  69.50382  95.47199
      14  67.20710  95.71465         28.78590   8.040000  69.50382  95.47199  64.88302  94.81929  64.91038  95.95757  69.53118  96.61027
      14  67.23447  96.85393         28.80990   8.040000  69.53118  96.61027  64.91038  95.95757  64.93776  97.09786  69.55856  97.75056
      14  67.26186  97.99523         28.83392   8.040000  69.55856  97.75056  64.93776  97.09786  64.96516  98.24017  69.58596  98.89287
      14  67.28927  99.13854         28.85795   8.040000  69.58596  98.89287  64.96516  98.24017  64.99259  99.38449  69.61338 100.03719
      14  67.31671 100.28388         28.88201   8.040000  69.61338 100.03719  64.99259  99.38449  65.02004 100.53084  69.64083 101.18354
      14  67.34417 101.43124         28.90609   8.040000  69.64083 101.18354  65.02004 100.53084  65.04751 101.67921  69.66830 102.33191
      14  67.37165 102.58062         28.93019   8.040000  69.66830 102.33191  65.04751 101.67921  65.07500 102.82961  69.69580 103.48231
      14  67.39916 103.73204         28.95431   8.040000  69.69580 103.48231  65.07500 102.82961  65.10252 103.98204  69.72331 104.63474
      14  67.42669 104.88549         28.97845   8.040000  69.72331 104.63474  65.10252 103.98204  65.13006 105.13651  69.75085 105.78921
      14  67.45424 106.04098         29.00261   8.040000  69.75085 105.78921  65.13006 105.13651  65.15762 106.29302  69.77842 106.94572
      14  67.48181 107.19851         29.02678   8.040000  69.77842 106.94572  65.15762 106.29302  65.18521 107.45157  69.80600 108.10427
      14  67.50941 108.35808         29.05098   8.040000  69.80600 108.10427  65.18521 107.45157  65.21282 108.61216  69.83361 109.26486
      14  67.53703 109.51970         29.07520   8.040000  69.83361 109.26486  65.21282 108.61216  65.24045 109.77481  69.86124 110.42751
      14  67.56467 110.68337         29.09944   8.040000  69.86124 110.42751  65.24045 109.77481  65.26810 110.93951  69.88890 111.59221
      14  67.59234 111.84910         29.12370   8.040000  69.88890 111.59221  65.26810 110.93951  65.29578 112.10626  69.91658 112.75896
      14  67.62003 113.01689         29.14798   8.040000  69.91658 112.75896  65.29578 112.10626  65.32348 113.27508  69.94428 113.92778
      14  67.64774 114.18673         29.17228   8.040000  69.94428 113.92778  65.32348 113.27508  65.35121 114.44596  69.97200 115.09866
      14  67.67548 115.35865         29.19660   8.040000  69.97200 115.09866  65.35121 114.44596  65.37895 115.61891  69.99975 116.27161
      14  67.70324 116.53263         29.22094   8.040000  69.99975 116.27161  65.37895 115.61891  65.40672 116.79393  70.02752 117.44663
      14  67.73102 117.70869         29.24530   8.040000  70.02752 117.44663  65.40672 116.79393  65.43452 117.97102  70.05531 118.62372
      14  67.75882 118.88682         29.26968   8.040000  70.05531 118.62372  65.43452 117.97102  65.46233 119.15019  70.08313 119.80289
      14  67.78665 120.06703         29.29409   8.040000  70.08313 119.80289  65.46233 119.15019  65.49017 120.33144  70.11097 120.98414
      14  67.81450 121.24932         29.31851   8.040000  70.11097 120.98414  65.49017 120.33144  65.51804 121.51478  70.13883 122.16748
      14  67.84238 122.43371         29.34295   8.040000  70.13883 122.16748  65.51804 121.51478  65.54592 122.70021  70.16672 123.35291
      14  67.87028 123.62018         29.36741   8.040000  70.16672 123.35291  65.54592 122.70021  65.57383 123.88773  70.19463 124.54043
      14  67.89820 124.80875         29.39190   8.040000  70.19463 124.54043  65.57383 123.88773  65.60177 125.07734  70.22256 125.73004
      14  67.92614 125.99941         29.41640   8.040000  70.22256 125.73004  65.60177 125.07734  65.62972 126.26905  70.25052 126.92176
      14  67.95411 127.19217         29.44092   8.040000  70.25052 126.92176  65.62972 126.26905  65.65770 127.46287  70.27850 128.11557
      14  67.98210 128.38705         29.46547   8.040000  70.27850 128.11557  65.65770 127.46287  65.68571 128.65880  70.30650 129.31150
      14  68.01012 129.58402         29.49003   8.040000  70.30650 129.31150  65.68571 128.65880  65.71373 129.85683  70.33453 130.50953
      14  68.03815 130.78311         29.51462   8.040000  70.33453 130.50953  65.71373 129.85683  65.74178 131.05698  70.36258 131.70968
      14  68.06622 131.98432         29.53922   8.040000  70.36258 131.70968  65.74178 131.05698  65.76985 132.25924  70.39065 132.91194
      14  68.09430 133.18765         29.56385   8.040000  70.39065 132.91194  65.76985 132.25924  65.79795 133.46363  70.41875 134.11633
      13  79.22037   0.14778         28.71402   9.250000  81.50455   0.03242  76.89857  -0.71771  76.93620   0.26338  81.54218   1.01351
      13  79.25802   1.12975         28.73796   9.250000  81.54218   1.01351  76.93620   0.26338  76.97386   1.24623  81.57984   1.99636
      13  79.29570   2.11348         28.76192   9.250000  81.57984   1.99636  76.97386   1.24623  77.01155   2.23083  81.61753   2.98096
      13  79.33341   3.09896         28.78590   9.250000  81.61753   2.98096  77.01155   2.23083  77.04928   3.21719  81.65526   3.96732
      13  79.37115   4.08620         28.80990   9.250000  81.65526   3.96732  77.04928   3.21719  77.08703   4.20532  81.69301   4.95545
      13  79.40892   5.07521         28.83392   9.250000  81.69301   4.95545  77.08703   4.20532  77.12482   5.19521  81.73080   5.94534
      13  79.44672   6.06599         28.85795   9.250000  81.73080   5.94534  77.12482   5.19521  77.16264   6.18687  81.76862   6.93700
      13  79.48455   7.05853         28.88201   9.250000  81.76862   6.93700  77.16264   6.18687  77.20049   7.18030  81.80647   7.93043
      13  79.52242   8.05285         28.90609   9.250000  81.80647   7.93043  77.20049   7.18030  77.23837   8.17551  81.84435   8.92564
      13  79.56032   9.04895         28.93019   9.250000  81.84435   8.92564  77.23837   8.17551  77.27628   9.17249  81.88227   9.92262
      13  79.59825  10.04682         28.95431   9.250000  81.88227   9.92262  77.27628   9.17249  77.31423  10.17126  81.92021  10.92139
      13  79.63621  11.04648         28.97845   9.250000  81.92021  10.92139  77.31423  10.17126  77.35220  11.17181  81.95819  11.92194
      13  79.67420  12.04792         29.00261   9.250000  81.95819  11.92194  77.35220  11.17181  77.39021  12.17415  81.99619  12.92428
      13  79.71222  13.05116         29.02678   9.250000  81.99619  12.92428  77.39021  12.17415  77.42825  13.17827  82.03423  13.92841
      13  79.75028  14.05618         29.05098   9.250000  82.03423  13.92841  77.42825  13.17827  77.46632  14.18420  82.07231  14.93433
      13  79.78837  15.06300         29.07520   9.250000  82.07231  14.93433  77.46632  14.18420  77.50443  15.19191  82.11041  15.94205
      13  79.82649  16.07162         29.09944   9.250000  82.11041  15.94205  77.50443  15.19191  77.54256  16.20143  82.14854  16.95156
      13  79.86464  17.08204         29.12370   9.250000  82.14854  16.95156  77.54256  16.20143  77.58073  17.21275  82.18671  17.96288
      13  79.90282  18.09426         29.14798   9.250000  82.18671  17.96288  77.58073  17.21275  77.61893  18.22588  82.22491  18.97601
      13  79.94103  19.10829         29.17228   9.250000  82.22491  18.97601  77.61893  18.22588  77.65716  19.24081  82.26314  19.99094
      13  79.97928  20.12413         29.19660   9.250000  82.26314  19.99094  77.65716  19.24081  77.69542  20.25756  82.30140  21.00769
      13  80.01756  21.14179         29.22094   9.250000  82.30140  21.00769  77.69542  20.25756  77.73371  21.27612  82.33970  22.02625
      13  80.05587  22.16126         29.24530   9.250000  82.33970  22.02625  77.73371  21.27612  77.77204  22.29650  82.37802  23.04663
      13  80.09421  23.18255         29.26968   9.250000  82.37802  23.04663  77.77204  22.29650  77.81040  23.31870  82.41638  24.06884
      13  80.13259  24.20566         29.29409   9.250000  82.41638  24.06884  77.81040  23.31870  77.84879  24.34273  82.45477  25.09286
      13  80.17099  25.23060         29.31851   9.250000  82.45477  25.09286  77.84879  24.34273  77.88721  25.36859  82.49319  26.11872
      13  80.20943  26.25737         29.34295   9.250000  82.49319  26.11872  77.88721  25.36859  77.92567  26.39627  82.53165  27.14640
      13  80.24790  27.28597         29.36741   9.250000  82.53165  27.14640  77.92567  26.39627  77.96415  27.42579  82.57013  28.17592
      13  80.28640  28.31641         29.39190   9.250000  82.57013  28.17592  77.96415  27.42579  78.00267  28.45715  82.60865  29.20728
      13  80.32494  29.34869         29.41640   9.250000  82.60865  29.20728  78.00267  28.45715  78.04122  29.49034  82.64720  30.24047
      13  80.36350  30.38281         29.44092   9.250000  82.64720  30.24047  78.04122  29.49034  78.07980  30.52538  82.68579  31.27551
      13  80.40210  31.41877         29.46547   9.250000  82.68579  31.27551  78.07980  30.52538  78.11842  31.56227  82.72440  32.31240
      13  80.44073  32.45658         29.49003   9.250000  82.72440  32.31240  78.11842  31.56227  78.15706  32.60101  82.76305  33.35114
      13  80.47940  33.49624         29.51462   9.250000  82.76305  33.35114  78.15706  32.60101  78.19574  33.64160  82.80173  34.39173
      13  80.51809  34.53776         29.53922   9.250000  82.80173  34.39173  78.19574  33.64160  78.23446  34.68404  82.84044  35.43417
      13  80.55682  35.58114         29.56385   9.250000  82.84044  35.43417  78.23446  34.68404  78.27320  35.72835  82.87918  36.47848
      13  80.59558  36.62637         29.58850   9.250000  82.87918  36.47848  78.27320  35.72835  78.31197  36.77452  82.91796  37.52465
      13  80.63437  37.67348         29.61316   9.250000  82.91796  37.52465  78.31197  36.77452  78.35078  37.82255  82.95677  38.57268
      13  80.67319  38.72244         29.63785   9.250000  82.95677  38.57268  78.35078  37.82255  78.38962  38.87245  82.99561  39.62259
      13  80.71205  39.77328         29.66256   9.250000  82.99561  39.62259  78.38962  38.87245  78.42850  39.92423  83.03448  40.67436
      13  80.75094  40.82600         29.68729   9.250000  83.03448  40.67436  78.42850  39.92423  78.46740  40.97788  83.07339  41.72801
      13  80.78986  41.88059         29.71204   9.250000  83.07339  41.72801  78.46740  40.97788  78.50634  42.03341  83.11232  42.78354
      13  80.82882  42.93706         29.73681   9.250000  83.11232  42.78354  78.50634  42.03341  78.54531  43.09082  83.15129  43.84095
      13  80.86780  43.99541         29.76160   9.250000  83.15129  43.84095  78.54531  43.09082  78.58431  44.15012  83.19030  44.90025
      13  80.90682  45.05565         29.78641   9.250000  83.19030  44.90025  78.58431  44.15012  78.62335  45.21130  83.22933  45.96144
      13  80.94587  46.11778         29.81124   9.250000  83.22933  45.96144  78.62335  45.21130  78.66242  46.27438  83.26840  47.02451
      13  80.98496  47.18181         29.83610   9.250000  83.26840  47.02451  78.66242  46.27438  78.70152  47.33935  83.30750  48.08948
      13  81.02408  48.24773         29.86097   9.250000  83.30750  48.08948  78.70152  47.33935  78.74065  48.40622  83.34663  49.15635
      13  81.06322  49.31555         29.88587   9.250000  83.34663  49.15635  78.74065  48.40622  78.77982  49.47499  83.38580  50.22513
      13  81.10241  50.38527         29.91078   9.250000  83.38580  50.22513  78.77982  49.47499  78.81901  50.54567  83.42500  51.29580
      13  81.14162  51.45690         29.93572   9.250000  83.42500  51.29580  78.81901  50.54567  78.85825  51.61826  83.46423  52.36839
      13  81.18087  52.53044         29.96067   9.250000  83.46423  52.36839  78.85825  51.61826  78.89751  52.69275  83.50349  53.44288
      13  81.22015  53.60590         29.98565   9.250000  83.50349  53.44288  78.89751  52.69275  78.93681  53.76916  83.54279  54.51929
      13  81.25946  54.68326         30.01065   9.250000  83.54279  54.51929  78.93681  53.76916  78.97613  54.84749  83.58212  55.59762
      13  81.29881  55.76255         30.03567   9.250000  83.58212  55.59762  78.97613  54.84749  79.01550  55.92774  83.62148  56.67787
      13  81.33819  56.84377         30.06071   9.250000  83.62148  56.67787  79.01550  55.92774  79.05489  57.00991  83.66087  57.76005
      13  81.37760  57.92690         30.08577   9.250000  83.66087  57.76005  79.05489  57.00991  79.09432  58.09402  83.70030  58.84415
      13  81.41704  59.01197         30.11085   9.250000  83.70030  58.84415  79.09432  58.09402  79.13378  59.18005  83.73976  59.93018
      13  81.45652  60.09897         30.13596   9.250000  83.73976  59.93018  79.13378  59.18005  79.17327  60.26802  83.77926  61.01815
      13  81.49603  61.18791         30.16108   9.250000  83.77926  61.01815  79.17327  60.26802  79.21280  61.35792  83.81878  62.10805
      13  81.53557  62.27878         30.18622   9.250000  83.81878  62.10805  79.21280  61.35792  79.25236  62.44977  83.85834  63.19990
      13  81.57515  63.37160         30.21139   9.250000  83.85834  63.19990  79.25236  62.44977  79.29195  63.54356  83.89793  64.29369
      13  81.61476  64.46637         30.23658   9.250000  83.89793  64.29369  79.29195  63.54356  79.33158  64.63930  83.93756  65.38943
      13  81.65440  65.56308         30.26178   9.250000  83.93756  65.38943  79.33158  64.63930  79.37123  65.73699  83.97722  66.48712
      13  81.69407  66.66175         30.28701   9.250000  83.97722  66.48712  79.37123  65.73699  79.41093  66.83663  84.01691  67.58677
      13  81.73378  67.76237         30.31226   9.250000  84.01691  67.58677  79.41093  66.83663  79.45065  67.93824  84.05663  68.68837
      13  81.77352  68.86495         30.33753   9.250000  84.05663  68.68837  79.45065  67.93824  79.49041  69.04180  84.09639  69.79193
      13  81.81329  69.96950         30.36283   9.250000  84.09639  69.79193  79.49041  69.04180  79.53020  70.14733  84.13618  70.89746
      13  81.85310  71.07601         30.38814   9.250000  84.13618  70.89746  79.53020  70.14733  79.57002  71.25483  84.17601  72.00496
      13  81.89294  72.18449         30.41347   9.250000  84.17601  72.00496  79.57002  71.25483  79.60988  72.36429  84.21586  73.11443
      13  81.93282  73.29495         30.43883   9.250000  84.21586  73.11443  79.60988  72.36429  79.64977  73.47574  84.25575  74.22587
      13  81.97272  74.40738         30.46420   9.250000  84.25575  74.22587  79.64977  73.47574  79.68969  74.58916  84.29568  75.33929
      13  82.01266  75.52179         30.48960   9.250000  84.29568  75.33929  79.68969  74.58916  79.72965  75.70456  84.33563  76.45469
      13  82.05264  76.63819         30.51502   9.250000  84.33563  76.45469  79.72965  75.70456  79.76964  76.82195  84.37562  77.57208
      13  82.09264  77.75657         30.54046   9.250000  84.37562  77.57208  79.76964  76.82195  79.80966  77.94132  84.41565  78.69146
      13  82.13268  78.87694         30.56592   9.250000  84.41565  78.69146  79.80966  77.94132  79.84972  79.06269  84.45570  79.81282
      13  82.17276  79.99931         30.59140   9.250000  84.45570  79.81282  79.84972  79.06269  79.88981  80.18606  84.49579  80.93619
      13  82.21286  81.12367         30.61691   9.250000  84.49579  80.93619  79.88981  80.18606  79.92994  81.31142  84.53592  82.06155
      13  82.25301  82.25003         30.64243   9.250000  84.53592  82.06155  79.92994  81.31142  79.97009  82.43878  84.57608  83.18891
      13  82.29318  83.37840         30.66798   9.250000  84.57608  83.18891  79.97009  82.43878  80.01028  83.56815  84.61627  84.31828
      13  82.33339  84.50877         30.69354   9.250000  84.61627  84.31828  80.01028  83.56815  80.05051  84.69953  84.65649  85.44966
      13  82.37363  85.64116         30.71913   9.250000  84.65649  85.44966  80.05051  84.69953  80.09077  85.83292  84.69675  86.58305
      13  82.41390  86.77556         30.74474   9.250000  84.69675  86.58305  80.09077  85.83292  80.13106  86.96833  84.73704  87.71846
      13  82.45421  87.91197         30.77037   9.250000  84.73704  87.71846  80.13106  86.96833  80.17138  88.10575  84.77736  88.85589
      13  82.49455  89.05041         30.79603   9.250000  84.77736  88.85589  80.17138  88.10575  80.21174  89.24520  84.81772  89.99534
      13  82.53493  90.19087         30.82170   9.250000  84.81772  89.99534  80.21174  89.24520  80.25213  90.38668  84.85811  91.13681
      13  82.57534  91.33336         30.84740   9.250000  84.85811  91.13681  80.25213  90.38668  80.29256  91.53019  84.89854  92.28032
      13  82.61578  92.47789         30.87311   9.250000  84.89854  92.28032  80.29256  91.53019  80.33302  92.67572  84.93900  93.42586
      13  82.65625  93.62444         30.89885   9.250000  84.93900  93.42586  80.33302  92.67572  80.37351  93.82330  84.97949  94.57343
      13  82.69677  94.77304         30.92461   9.250000  84.97949  94.57343  80.37351  93.82330  80.41404  94.97292  85.02002  95.72305
      13  82.73731  95.92368         30.95039   9.250000  85.02002  95.72305  80.41404  94.97292  80.45460  96.12458  85.06058  96.87471
      13  82.77789  97.07636         30.97619   9.250000  85.06058  96.87471  80.45460  96.12458  80.49519  97.27829  85.10118  98.02842
      13  82.81850  98.23109         31.00202   9.250000  85.10118  98.02842  80.49519  97.27829  80.53582  98.43404  85.14180  99.18418
      13  82.85914  99.38788         31.02786   9.250000  85.14180  99.18418  80.53582  98.43404  80.57648  99.59186  85.18247 100.34199
      13  82.89982 100.54672         31.05373   9.250000  85.18247 100.34199  80.57648  99.59186  80.61718 100.75173  85.22316 101.50186
      13  82.94054 101.70762         31.07962   9.250000  85.22316 101.50186  80.61718 100.75173  80.65791 101.91366  85.26389 102.66379
      13  82.98128 102.87059         31.10553   9.250000  85.26389 102.66379  80.65791 101.91366  80.69867 103.07766  85.30466 103.82779
      13  83.02206 104.03562         31.13146   9.250000  85.30466 103.82779  80.69867 103.07766  80.73947 104.24372  85.34545 104.99386
      13  83.06288 105.20272         31.15742   9.250000  85.34545 104.99386  80.73947 104.24372  80.78030 105.41186  85.38629 106.16199
      13  83.10373 106.37190         31.18339   9.250000  85.38629 106.16199  80.78030 105.41186  80.82117 106.58208  85.42715 107.33221
      13  83.14461 107.54315         31.20939   9.250000  85.42715 107.33221  80.82117 106.58208  80.86207 107.75437  85.46805 108.50450
      13  83.18553 108.71648         31.23541   9.250000  85.46805 108.50450  80.86207 107.75437  80.90300 108.92874  85.50899 109.67888
      13  83.22648 109.89190         31.26145   9.250000  85.50899 109.67888  80.90300 108.92874  80.94397 110.10521  85.54996 110.85534
      13  83.26747 111.06941         31.28751   9.250000  85.54996 110.85534  80.94397 110.10521  80.98498 111.28376  85.59096 112.03389
      13  83.30848 112.24901         31.31359   9.250000  85.59096 112.03389  80.98498 111.28376  81.02601 112.46441  85.63199 113.21454
      13  83.34954 113.43070         31.33970   9.250000  85.63199 113.21454  81.02601 112.46441  81.06708 113.64715  85.67307 114.39728
      13  83.39063 114.61450         31.36583   9.250000  85.67307 114.39728  81.06708 113.64715  81.10819 114.83199  85.71417 115.58212
      13  83.43175 115.80039         31.39198   9.250000  85.71417 115.58212  81.10819 114.83199  81.14933 116.01894  85.75531 116.76907
      13  83.47291 116.98840         31.41815   9.250000  85.75531 116.76907  81.14933 116.01894  81.19050 117.20800  85.79648 117.95813
      13  83.51410 118.17851         31.44434   9.250000  85.79648 117.95813  81.19050 117.20800  81.23171 118.39917  85.83769 119.14930
      13  83.55532 119.37073         31.47055   9.250000  85.83769 119.14930  81.23171 118.39917  81.27295 119.59245  85.87893 120.34258
      13  83.59658 120.56508         31.49679   9.250000  85.87893 120.34258  81.27295 119.59245  81.31423 120.78785  85.92021 121.53798
      13  83.63788 121.76154         31.52305   9.250000  85.92021 121.53798  81.31423 120.78785  81.35554 121.98538  85.96152 122.73551
      13  83.67920 122.96013         31.54933   9.250000  85.96152 122.73551  81.35554 121.98538  81.39689 123.18503  86.00287 123.93516
      13  83.72057 124.16084         31.57563   9.250000  86.00287 123.93516  81.39689 123.18503  81.43827 124.38681  86.04425 125.13694
      13  83.76196 125.36369         31.60196   9.250000  86.04425 125.13694  81.43827 124.38681  81.47968 125.59072  86.08566 126.34086
      13  83.80340 126.56868         31.62830   9.250000  86.08566 126.34086  81.47968 125.59072  81.52113 126.79678  86.12711 127.54691
      13  83.84486 127.77580         31.65467   9.250000  86.12711 127.54691  81.52113 126.79678  81.56261 128.00497  86.16860 128.75510
      12  95.53762  -2.02664         30.95039  10.490000  97.80583  -2.08610  93.21716  -2.93573  93.26941  -1.96695  97.85808  -1.11732
      12  95.58989  -1.05699         30.97619  10.490000  97.85808  -1.11732  93.26941  -1.96695  93.32170  -0.99644  97.91037  -0.14681
      12  95.64220  -0.08563         31.00202  10.490000  97.91037  -0.14681  93.32170  -0.99644  93.37403  -0.02421  97.96270   0.82542
      12  95.69455   0.88747         31.02786  10.490000  97.96270   0.82542  93.37403  -0.02421  93.42641   0.94975  98.01508   1.79938
      12  95.74695   1.86230         31.05373  10.490000  98.01508   1.79938  93.42641   0.94975  93.47883   1.92545  98.06750   2.77508
      12  95.79940   2.83886         31.07962  10.490000  98.06750   2.77508  93.47883   1.92545  93.53129   2.90288  98.11997   3.75251
      12  95.85188   3.81716         31.10553  10.490000  98.11997   3.75251  93.53129   2.90288  93.58380   3.88205  98.17247   4.73168
      12  95.90441   4.79720         31.13146  10.490000  98.17247   4.73168  93.58380   3.88205  93.63636   4.86296  98.22503   5.71259
      12  95.95699   5.77899         31.15742  10.490000  98.22503   5.71259  93.63636   4.86296  93.68895   5.84562  98.27762   6.69525
      12  96.00961   6.76252         31.18339  10.490000  98.27762   6.69525  93.68895   5.84562  93.74159   6.83002  98.33026   7.67965
      12  96.06227   7.74780         31.20939  10.490000  98.33026   7.67965  93.74159   6.83002  93.79428   7.81617  98.38295   8.66581
      12  96.11498   8.73483         31.23541  10.490000  98.38295   8.66581  93.79428   7.81617  93.84700   8.80408  98.43567   9.65372
      12  96.16773   9.72362         31.26145  10.490000  98.43567   9.65372  93.84700   8.80408  93.89978   9.79375  98.48845  10.64338
      12  96.22052  10.71416         31.28751  10.490000  98.48845  10.64338  93.89978   9.79375  93.95259  10.78518  98.54126  11.63481
      12  96.27336  11.70647         31.31359  10.490000  98.54126  11.63481  93.95259  10.78518  94.00545  11.77837  98.59412  12.62800
      12  96.32624  12.70054         31.33970  10.490000  98.59412  12.62800  94.00545  11.77837  94.05836  12.77332  98.64703  13.62295
      12  96.37917  13.69638         31.36583  10.490000  98.64703  13.62295  94.05836  12.77332  94.11130  13.77004  98.69997  14.61968
      12  96.43214  14.69399         31.39198  10.490000  98.69997  14.61968  94.11130  13.77004  94.16430  14.76854  98.75297  15.61817
      12  96.48515  15.69337         31.41815  10.490000  98.75297  15.61817  94.16430  14.76854  94.21733  15.76881  98.80600  16.61844
      12  96.53821  16.69453         31.44434  10.490000  98.80600  16.61844  94.21733  15.76881  94.27041  16.77086  98.85908  17.62049
      12  96.59131  17.69747         31.47055  10.490000  98.85908  17.62049  94.27041  16.77086  94.32354  17.77469  98.91221  18.62432
      12  96.64446  18.70220         31.49679  10.490000  98.91221  18.62432  94.32354  17.77469  94.37671  18.78031  98.96538  19.62994
      12  96.69765  19.70870         31.52305  10.490000  98.96538  19.62994  94.37671  18.78031  94.42992  19.78771  99.01859  20.63734
      12  96.75089  20.71700         31.54933  10.490000  99.01859  20.63734  94.42992  19.78771  94.48318  20.79690  99.07185  21.64653
      12  96.80417  21.72709         31.57563  10.490000  99.07185  21.64653  94.48318  20.79690  94.53648  21.80789  99.12515  22.65752
      12  96.85749  22.73897         31.60196  10.490000  99.12515  22.65752  94.53648  21.80789  94.58983  22.82067  99.17850  23.67030
      12  96.91086  23.75266         31.62830  10.490000  99.17850  23.67030  94.58983  22.82067  94.64322  23.83525  99.23189  24.68488
      12  96.96427  24.76814         31.65467  10.490000  99.23189  24.68488  94.64322  23.83525  94.69665  24.85164  99.28533  25.70127
      12  97.01773  25.78543         31.68106  10.490000  99.28533  25.70127  94.69665  24.85164  94.75014  25.86983  99.33881  26.71946
      12  97.07123  26.80452         31.70747  10.490000  99.33881  26.71946  94.75014  25.86983  94.80366  26.88983  99.39233  27.73946
      12  97.12478  27.82543         31.73391  10.490000  99.39233  27.73946  94.80366  26.88983  94.85723  27.91164  99.44590  28.76127
      12  97.17837  28.84815         31.76036  10.490000  99.44590  28.76127  94.85723  27.91164  94.91084  28.93527  99.49951  29.78490
      12  97.23201  29.87269         31.78684  10.490000  99.49951  29.78490  94.91084  28.93527  94.96450  29.96071  99.55317  30.81034
      12  97.28569  30.89904         31.81334  10.490000  99.55317  30.81034  94.96450  29.96071  95.01821  30.98798  99.60688  31.83761
      12  97.33942  31.92722         31.83986  10.490000  99.60688  31.83761  95.01821  30.98798  95.07195  32.01707  99.66063  32.86670
      12  97.39319  32.95723         31.86641  10.490000  99.66063  32.86670  95.07195  32.01707  95.12575  33.04799  99.71442  33.89762
      12  97.44700  33.98906         31.89297  10.490000  99.71442  33.89762  95.12575  33.04799  95.17959  34.08074  99.76826  34.93037
      12  97.50086  35.02273         31.91956  10.490000  99.76826  34.93037  95.17959  34.08074  95.23347  35.11532  99.82214  35.96496
      12  97.55477  36.05823         31.94617  10.490000  99.82214  35.96496  95.23347  35.11532  95.28740  36.15175  99.87607  37.00138
      12  97.60872  37.09557         31.97280  10.490000  99.87607  37.00138  95.28740  36.15175  95.34137  37.19001  99.93004  38.03964
      12  97.66271  38.13475         31.99946  10.490000  99.93004  38.03964  95.34137  37.19001  95.39539  38.23011  99.98406  39.07974
      12  97.71675  39.17578         32.02614  10.490000  99.98406  39.07974  95.39539  38.23011  95.44945  39.27206 100.03812  40.12170
      12  97.77084  40.21866         32.05284  10.490000 100.03812  40.12170  95.44945  39.27206  95.50356  40.31587 100.09223  41.16550
      12  97.82497  41.26339         32.07956  10.490000 100.09223  41.16550  95.50356  40.31587  95.55771  41.36152 100.14638  42.21115
      12  97.87914  42.30997         32.10630  10.490000 100.14638  42.21115  95.55771  41.36152  95.61191  42.40903 100.20058  43.25866
      12  97.93337  43.35841         32.13307  10.490000 100.20058  43.25866  95.61191  42.40903  95.66615  43.45840 100.25482  44.30803
      12  97.98763  44.40871         32.15986  10.490000 100.25482  44.30803  95.66615  43.45840  95.72044  44.50963 100.30911  45.35927
      12  98.04194  45.46087         32.18667  10.490000 100.30911  45.35927  95.72044  44.50963  95.77477  45.56273 100.36345  46.41236
      12  98.09630  46.51491         32.21350  10.490000 100.36345  46.41236  95.77477  45.56273  95.82915  46.61770 100.41782  47.46733
      12  98.15070  47.57081         32.24036  10.490000 100.41782  47.46733  95.82915  46.61770  95.88358  47.67454 100.47225  48.52417
      12  98.20515  48.62859         32.26724  10.490000 100.47225  48.52417  95.88358  47.67454  95.93805  48.73325 100.52672  49.58289
      12  98.25964  49.68824         32.29414  10.490000 100.52672  49.58289  95.93805  48.73325  95.99256  49.79385 100.58123  50.64348
      12  98.31418  50.74978         32.32106  10.490000 100.58123  50.64348  95.99256  49.79385  96.04712  50.85632 100.63579  51.70595
      12  98.36876  51.81319         32.34800  10.490000 100.63579  51.70595  96.04712  50.85632  96.10173  51.92068 100.69040  52.77031
      12  98.42339  52.87850         32.37497  10.490000 100.69040  52.77031  96.10173  51.92068  96.15638  52.98693 100.74505  53.83656
      12  98.47807  53.94569         32.40196  10.490000 100.74505  53.83656  96.15638  52.98693  96.21108  54.05507 100.79975  54.90470
      12  98.53279  55.01478         32.42898  10.490000 100.79975  54.90470  96.21108  54.05507  96.26582  55.12511 100.85449  55.97474
      12  98.58755  56.08576         32.45601  10.490000 100.85449  55.97474  96.26582  55.12511  96.32061  56.19704 100.90928  57.04667
      12  98.64236  57.15865         32.48307  10.490000 100.90928  57.04667  96.32061  56.19704  96.37544  57.27087 100.96411  58.12051
      12  98.69722  58.23343         32.51015  10.490000 100.96411  58.12051  96.37544  57.27087  96.43032  58.34661 101.01899  59.19624
      12  98.75212  59.31013         32.53725  10.490000 101.01899  59.19624  96.43032  58.34661  96.48525  59.42426 101.07392  60.27389
      12  98.80707  60.38873         32.56438  10.490000 101.07392  60.27389  96.48525  59.42426  96.54022  60.50382 101.12889  61.35345
      12  98.86206  61.46924         32.59153  10.490000 101.12889  61.35345  96.54022  60.50382  96.59524  61.58529 101.18391  62.43492
      12  98.91710  62.55167         32.61870  10.490000 101.18391  62.43492  96.59524  61.58529  96.65030  62.66868 101.23897  63.51831
      12  98.97219  63.63602         32.64589  10.490000 101.23897  63.51831  96.65030  62.66868  96.70541  63.75399 101.29408  64.60362
      12  99.02732  64.72230         32.67311  10.490000 101.29408  64.60362  96.70541  63.75399  96.76056  64.84123 101.34924  65.69086
      12  99.08250  65.81050         32.70035  10.490000 101.34924  65.69086  96.76056  64.84123  96.81577  65.93039 101.40444  66.78002
      12  99.13772  66.90063         32.72761  10.490000 101.40444  66.78002  96.81577  65.93039  96.87101  67.02148 101.45968  67.87112
      12  99.19299  67.99269         32.75489  10.490000 101.45968  67.87112  96.87101  67.02148  96.92631  68.11451 101.51498  68.96414
      12  99.24831  69.08668         32.78220  10.490000 101.51498  68.96414  96.92631  68.11451  96.98164  69.20948 101.57032  70.05911
      12  99.30367  70.18262         32.80953  10.490000 101.57032  70.05911  96.98164  69.20948  97.03703  70.30638 101.62570  71.15602
      12  99.35908  71.28050         32.83688  10.490000 101.62570  71.15602  97.03703  70.30638  97.09246  71.40524 101.68113  72.25487
      12  99.41454  72.38032         32.86426  10.490000 101.68113  72.25487  97.09246  71.40524  97.14794  72.50603 101.73661  73.35567
      12  99.47004  73.48210         32.89166  10.490000 101.73661  73.35567  97.14794  72.50603  97.20346  73.60878 101.79213  74.45841
      12  99.52558  74.58582         32.91908  10.490000 101.79213  74.45841  97.20346  73.60878  97.25903  74.71349 101.84770  75.56312
      12  99.58118  75.69150         32.94652  10.490000 101.84770  75.56312  97.25903  74.71349  97.31465  75.82015 101.90332  76.66978
      12  99.63682  76.79914         32.97399  10.490000 101.90332  76.66978  97.31465  75.82015  97.37031  76.92877 101.95898  77.77840
      12  99.69250  77.90875         33.00148  10.490000 101.95898  77.77840  97.37031  76.92877  97.42602  78.03936 102.01469  78.88899
      12  99.74823  79.02032         33.02899  10.490000 102.01469  78.88899  97.42602  78.03936  97.48178  79.15191 102.07045  80.00154
      12  99.80401  80.13386         33.05653  10.490000 102.07045  80.00154  97.48178  79.15191  97.53758  80.26644 102.12625  81.11607
      12  99.85984  81.24937         33.08408  10.490000 102.12625  81.11607  97.53758  80.26644  97.59343  81.38294 102.18210  82.23257
      12  99.91571  82.36686         33.11167  10.490000 102.18210  82.23257  97.59343  81.38294  97.64932  82.50141 102.23799  83.35104
      12  99.97163  83.48633         33.13927  10.490000 102.23799  83.35104  97.64932  82.50141  97.70527  83.62187 102.29394  84.47150
      12 100.02759  84.60778         33.16690  10.490000 102.29394  84.47150  97.70527  83.62187  97.76125  84.74431 102.34992  85.59395
      12 100.08361  85.73121         33.19455  10.490000 102.34992  85.59395  97.76125  84.74431  97.81729  85.86875 102.40596  86.71838
      12 100.13967  86.85664         33.22222  10.490000 102.40596  86.71838  97.81729  85.86875  97.87337  86.99517 102.46204  87.84480
      12 100.19577  87.98406         33.24992  10.490000 102.46204  87.84480  97.87337  86.99517  97.92950  88.12359 102.51817  88.97322
      12 100.25192  89.11348         33.27764  10.490000 102.51817  88.97322  97.92950  88.12359  97.98567  89.25400 102.57435  90.10363
      12 100.30812  90.24490         33.30538  10.490000 102.57435  90.10363  97.98567  89.25400  98.04190  90.38642 102.63057  91.23605
      12 100.36437  91.37832         33.33315  10.490000 102.63057  91.23605  98.04190  90.38642  98.09817  91.52084 102.68684  92.37048
      12 100.42066  92.51374         33.36094  10.490000 102.68684  92.37048  98.09817  91.52084  98.15448  92.65728 102.74315  93.50691
      12 100.47700  93.65118         33.38875  10.490000 102.74315  93.50691  98.15448  92.65728  98.21085  93.79572 102.79952  94.64535
      12 100.53339  94.79063         33.41659  10.490000 102.79952  94.64535  98.21085  93.79572  98.26726  94.93618 102.85593  95.78581
      12 100.58982  95.93210         33.44444  10.490000 102.85593  95.78581  98.26726  94.93618  98.32371  96.07866 102.91238  96.92829
      12 100.64630  97.07559         33.47233  10.490000 102.91238  96.92829  98.32371  96.07866  98.38022  97.22316 102.96889  98.07279
      12 100.70283  98.22110         33.50023  10.490000 102.96889  98.07279  98.38022  97.22316  98.43677  98.36968 103.02544  99.21932
      12 100.75940  99.36864         33.52816  10.490000 103.02544  99.21932  98.43677  98.36968  98.49337  99.51824 103.08204 100.36787
      12 100.81602 100.51822         33.55611  10.490000 103.08204 100.36787  98.49337  99.51824  98.55001 100.66883 103.13868 101.51846
      12 100.87269 101.66982         33.58409  10.490000 103.13868 101.51846  98.55001 100.66883  98.60670 101.82145 103.19538 102.67109
      12 100.92941 102.82347         33.61208  10.490000 103.19538 102.67109  98.60670 101.82145  98.66344 102.97612 103.25212 103.82575
      12 100.98617 103.97915         33.64011  10.490000 103.25212 103.82575  98.66344 102.97612  98.72023 104.13283 103.30890 104.98246
      12 101.04298 105.13689         33.66815  10.490000 103.30890 104.98246  98.72023 104.13283  98.77707 105.29158 103.36574 106.14121
      12 101.09984 106.29667         33.69622  10.490000 103.36574 106.14121  98.77707 105.29158  98.83395 106.45239 103.42262 107.30202
      12 101.15675 107.45850         33.72431  10.490000 103.42262 107.30202  98.83395 106.45239  98.89088 107.61525 103.47955 108.46488
      12 101.21370 108.62239         33.75243  10.490000 103.47955 108.46488  98.89088 107.61525  98.94785 108.78016 103.53653 109.62980
      12 101.27070 109.78833         33.78057  10.490000 103.53653 109.62980  98.94785 108.78016  99.00488 109.94714 103.59355 110.79677
      12 101.32775 110.95634         33.80873  10.490000 103.59355 110.79677  99.00488 109.94714  99.06195 111.11619 103.65062 111.96582
      12 101.38485 112.12642         33.83691  10.490000 103.65062 111.96582  99.06195 111.11619  99.11907 112.28730 103.70774 113.13693
      12 101.44199 113.29857         33.86512  10.490000 103.70774 113.13693  99.11907 112.28730  99.17624 113.46048 103.76491 114.31011
      12 101.49918 114.47278         33.89336  10.490000 103.76491 114.31011  99.17624 113.46048  99.23345 114.63573 103.82212 115.48537
      12 101.55642 115.64908         33.92161  10.490000 103.82212 115.48537  99.23345 114.63573  99.29071 115.81307 103.87939 116.66270
      12 101.61371 116.82746         33.94989  10.490000 103.87939 116.66270  99.29071 115.81307  99.34803 116.99249 103.93670 117.84212
      12 101.67104 118.00792         33.97820  10.490000 103.93670 117.84212  99.34803 116.99249  99.40538 118.17399 103.99405 119.02362
      12 101.72842 119.19047         34.00652  10.490000 103.99405 119.02362  99.40538 118.17399  99.46279 119.35759 104.05146 120.20722
      12 101.78585 120.37511         34.03487  10.490000 104.05146 120.20722  99.46279 119.35759  99.52024 120.54327 104.10891 121.39290
      12 101.84333 121.56184         34.06325  10.490000 104.10891 121.39290  99.52024 120.54327  99.57774 121.73105 104.16642 122.58069
      12 101.90085 122.75067         34.09165  10.490000 104.16642 122.58069  99.57774 121.73105  99.63529 122.92094 104.22397 123.77057
      12 101.95843 123.94161         34.12007  10.490000 104.22397 123.77057  99.63529 122.92094  99.69289 124.11292 104.28156 124.96256
      12 102.01605 125.13465         34.14851  10.490000 104.28156 124.96256  99.69289 124.11292  99.75054 125.30702 104.33921 126.15665
      12 102.07372 126.32980         34.17698  10.490000 104.33921 126.15665  99.75054 125.30702  99.80823 126.50322 104.39690 127.35286
      12 102.13144 127.52706         34.20547  10.490000 104.39690 127.35286  99.80823 126.50322  99.86597 127.70154 104.45464 128.55118
      11 115.36295   0.80393         33.75243  11.710000 117.61263   0.78729 113.04309  -0.15985 113.11326   0.82080 117.68280   1.76793
      11 115.43315   1.78544         33.78057  11.710000 117.68280   1.76793 113.11326   0.82080 113.18350   1.80319 117.75304   2.75033
      11 115.50341   2.76871         33.80873  11.710000 117.75304   2.75033 113.18350   1.80319 113.25379   2.78733 117.82333   3.73447
      11 115.57373   3.75374         33.83691  11.710000 117.82333   3.73447 113.25379   2.78733 113.32413   3.77324 117.89368   4.72038
      11 115.64411   4.74052         33.86512  11.710000 117.89368   4.72038 113.32413   3.77324 113.39454   4.76090 117.96408   5.70804
      11 115.71455   5.72907         33.89336  11.710000 117.96408   5.70804 113.39454   4.76090 113.46501   5.75033 118.03455   6.69747
      11 115.78504   6.71938         33.92161  11.710000 118.03455   6.69747 113.46501   5.75033 113.53553   6.74152 118.10507   7.68866
      11 115.85560   7.71146         33.94989  11.710000 118.10507   7.68866 113.53553   6.74152 113.60612   7.73449 118.17566   8.68163
      11 115.92621   8.70531         33.97820  11.710000 118.17566   8.68163 113.60612   7.73449 113.67676   8.72923 118.24630   9.67636
      11 115.99688   9.70093         34.00652  11.710000 118.24630   9.67636 113.67676   8.72923 113.74746   9.72574 118.31700  10.67288
      11 116.06761  10.69833         34.03487  11.710000 118.31700  10.67288 113.74746   9.72574 113.81822  10.72403 118.38776  11.67117
      11 116.13840  11.69751         34.06325  11.710000 118.38776  11.67117 113.81822  10.72403 113.88904  11.72410 118.45858  12.67124
      11 116.20925  12.69848         34.09165  11.710000 118.45858  12.67124 113.88904  11.72410 113.95992  12.72596 118.52946  13.67310
      11 116.28016  13.70123         34.12007  11.710000 118.52946  13.67310 113.95992  12.72596 114.03086  13.72960 118.60040  14.67674
      11 116.35113  14.70577         34.14851  11.710000 118.60040  14.67674 114.03086  13.72960 114.10185  14.73504 118.67140  15.68218
      11 116.42215  15.71210         34.17698  11.710000 118.67140  15.68218 114.10185  14.73504 114.17291  15.74227 118.74245  16.68941
      11 116.49324  16.72023         34.20547  11.710000 118.74245  16.68941 114.17291  15.74227 114.24403  16.75129 118.81357  17.69843
      11 116.56438  17.73016         34.23399  11.710000 118.81357  17.69843 114.24403  16.75129 114.31520  17.76212 118.88474  18.70926
      11 116.63559  18.74189         34.26253  11.710000 118.88474  18.70926 114.31520  17.76212 114.38643  18.77475 118.95597  19.72189
      11 116.70685  19.75542         34.29109  11.710000 118.95597  19.72189 114.38643  18.77475 114.45773  19.78919 119.02727  20.73633
      11 116.77817  20.77076         34.31968  11.710000 119.02727  20.73633 114.45773  19.78919 114.52908  20.80544 119.09862  21.75257
      11 116.84956  21.78791         34.34829  11.710000 119.09862  21.75257 114.52908  20.80544 114.60049  21.82349 119.17003  22.77063
      11 116.92100  22.80688         34.37693  11.710000 119.17003  22.77063 114.60049  21.82349 114.67196  22.84337 119.24150  23.79051
      11 116.99250  23.82766         34.40559  11.710000 119.24150  23.79051 114.67196  22.84337 114.74349  23.86506 119.31304  24.81220
      11 117.06406  24.85027         34.43427  11.710000 119.31304  24.81220 114.74349  23.86506 114.81509  24.88858 119.38463  25.83572
      11 117.13568  25.87470         34.46298  11.710000 119.38463  25.83572 114.81509  24.88858 114.88674  25.91392 119.45628  26.86106
      11 117.20736  26.90095         34.49171  11.710000 119.45628  26.86106 114.88674  25.91392 114.95845  26.94109 119.52799  27.88823
      11 117.27910  27.92904         34.52047  11.710000 119.52799  27.88823 114.95845  26.94109 115.03022  27.97009 119.59976  28.91723
      11 117.35090  28.95895         34.54924  11.710000 119.59976  28.91723 115.03022  27.97009 115.10205  29.00093 119.67159  29.94806
      11 117.42276  29.99071         34.57805  11.710000 119.67159  29.94806 115.10205  29.00093 115.17394  30.03360 119.74348  30.98074
      11 117.49468  31.02430         34.60687  11.710000 119.74348  30.98074 115.17394  30.03360 115.24589  31.06811 119.81543  32.01525
      11 117.56666  32.05974         34.63573  11.710000 119.81543  32.01525 115.24589  31.06811 115.31790  32.10447 119.88744  33.05161
      11 117.63870  33.09702         34.66460  11.710000 119.88744  33.05161 115.31790  32.10447 115.38997  33.14268 119.95951  34.08981
      11 117.71080  34.13615         34.69350  11.710000 119.95951  34.08981 115.38997  33.14268 115.46210  34.18273 120.03164  35.12987
      11 117.78296  35.17713         34.72242  11.710000 120.03164  35.12987 115.46210  34.18273 115.53429  35.22464 120.10383  36.17178
      11 117.85518  36.21997         34.75137  11.710000 120.10383  36.17178 115.53429  35.22464 115.60654  36.26841 120.17608  37.21555
      11 117.92746  37.26467         34.78034  11.710000 120.17608  37.21555 115.60654  36.26841 115.67885  37.31403 120.24839  38.26117
      11 117.99980  38.31122         34.80934  11.710000 120.24839  38.26117 115.67885  37.31403 115.75122  38.36152 120.32076  39.30866
      11 118.07220  39.35965         34.83836  11.710000 120.32076  39.30866 115.75122  38.36152 115.82365  39.41088 120.39319  40.35802
      11 118.14466  40.40994         34.86740  11.710000 120.39319  40.35802 115.82365  39.41088 115.89614  40.46210 120.46568  41.40924
      11 118.21719  41.46210         34.89647  11.710000 120.46568  41.40924 115.89614  40.46210 115.96869  41.51520 120.53823  42.46234
      11 118.28977  42.51613         34.92556  11.710000 120.53823  42.46234 115.96869  41.51520 116.04130  42.57018 120.61084  43.51732
      11 118.36241  43.57205         34.95468  11.710000 120.61084  43.51732 116.04130  42.57018 116.11398  43.62703 120.68352  44.57417
      11 118.43511  44.62984         34.98382  11.710000 120.68352  44.57417 116.11398  43.62703 116.18671  44.68577 120.75625  45.63291
      11 118.50788  45.68952         35.01299  11.710000 120.75625  45.63291 116.18671  44.68577 116.25950  45.74639 120.82904  46.69353
      11 118.58070  46.75109         35.04218  11.710000 120.82904  46.69353 116.25950  45.74639 116.33236  46.80890 120.90190  47.75604
      11 118.65359  47.81455         35.07139  11.710000 120.90190  47.75604 116.33236  46.80890 116.40527  47.87330 120.97481  48.82044
      11 118.72653  48.87990         35.10063  11.710000 120.97481  48.82044 116.40527  47.87330 116.47825  48.93960 121.04779  49.88674
      11 118.79954  49.94715         35.12989  11.710000 121.04779  49.88674 116.47825  48.93960 116.55129  50.00780 121.12083  50.95494
      11 118.87261  51.01629         35.15918  11.710000 121.12083  50.95494 116.55129  50.00780 116.62438  51.07790 121.19393  52.02504
      11 118.94573  52.08735         35.18849  11.710000 121.19393  52.02504 116.62438  51.07790 116.69754  52.14991 121.26708  53.09705
      11 119.01892  53.16031         35.21782  11.710000 121.26708  53.09705 116.69754  52.14991 116.77076  53.22382 121.34030  54.17096
      11 119.09217  54.23518         35.24719  11.710000 121.34030  54.17096 116.77076  53.22382 116.84404  54.29965 121.41359  55.24678
      11 119.16549  55.31196         35.27657  11.710000 121.41359  55.24678 116.84404  54.29965 116.91739  55.37739 121.48693  56.32453
      11 119.23886  56.39066         35.30598  11.710000 121.48693  56.32453 116.91739  55.37739 116.99079  56.45705 121.56033  57.40419
      11 119.31229  57.47128         35.33541  11.710000 121.56033  57.40419 116.99079  56.45705 117.06425  57.53863 121.63380  58.48577
      11 119.38579  58.55382         35.36487  11.710000 121.63380  58.48577 117.06425  57.53863 117.13778  58.62213 121.70732  59.56927
      11 119.45934  59.63829         35.39435  11.710000 121.70732  59.56927 117.13778  58.62213 117.21137  59.70757 121.78091  60.65471
      11 119.53296  60.72469         35.42386  11.710000 121.78091  60.65471 117.21137  59.70757 117.28502  60.79494 121.85456  61.74207
      11 119.60664  61.81303         35.45339  11.710000 121.85456  61.74207 117.28502  60.79494 117.35873  61.88424 121.92827  62.83138
      11 119.68038  62.90330         35.48295  11.710000 121.92827  62.83138 117.35873  61.88424 117.43250  62.97548 122.00204  63.92262
      11 119.75418  63.99551         35.51253  11.710000 122.00204  63.92262 117.43250  62.97548 117.50633  64.06866 122.07587  65.01580
      11 119.82805  65.08966         35.54214  11.710000 122.07587  65.01580 117.50633  64.06866 117.58022  65.16379 122.14976  66.11092
      11 119.90197  66.18576         35.57177  11.710000 122.14976  66.11092 117.58022  65.16379 117.65418  66.26086 122.22372  67.20800
      11 119.97596  67.28381         35.60143  11.710000 122.22372  67.20800 117.65418  66.26086 117.72820  67.35989 122.29774  68.30703
      11 120.05001  68.38382         35.63111  11.710000 122.29774  68.30703 117.72820  67.35989 117.80228  68.46087 122.37182  69.40801
      11 120.12412  69.48578         35.66081  11.710000 122.37182  69.40801 117.80228  68.46087 117.87642  69.56381 122.44596  70.51095
      11 120.19829  70.58970         35.69054  11.710000 122.44596  70.51095 117.87642  69.56381 117.95062  70.66871 122.52016  71.61585
      11 120.27252  71.69559         35.72029  11.710000 122.52016  71.61585 117.95062  70.66871 118.02488  71.77558 122.59442  72.72272
      11 120.34682  72.80344         35.75007  11.710000 122.59442  72.72272 118.02488  71.77558 118.09921  72.88442 122.66875  73.83156
      11 120.42118  73.91326         35.77988  11.710000 122.66875  73.83156 118.09921  72.88442 118.17360  73.99523 122.74314  74.94236
      11 120.49559  75.02506         35.80971  11.710000 122.74314  74.94236 118.17360  73.99523 118.24805  75.10801 122.81759  76.05515
      11 120.57008  76.13883         35.83956  11.710000 122.81759  76.05515 118.24805  75.10801 118.32256  76.22277 122.89210  77.16991
      11 120.64462  77.25458         35.86944  11.710000 122.89210  77.16991 118.32256  76.22277 118.39714  77.33952 122.96668  78.28665
      11 120.71923  78.37232         35.89934  11.710000 122.96668  78.28665 118.39714  77.33952 118.47177  78.45825 123.04131  79.40538
      11 120.79389  79.49204         35.92927  11.710000 123.04131  79.40538 118.47177  78.45825 118.54647  79.57897 123.11601  80.52610
      11 120.86862  80.61376         35.95923  11.710000 123.11601  80.52610 118.54647  79.57897 118.62123  80.70168 123.19077  81.64881
      11 120.94342  81.73747         35.98920  11.710000 123.19077  81.64881 118.62123  80.70168 118.69606  81.82638 123.26560  82.77352
      11 121.01827  82.86317         36.01921  11.710000 123.26560  82.77352 118.69606  81.82638 118.77094  82.95309 123.34048  83.90023
      11 121.09319  83.99088         36.04924  11.710000 123.34048  83.90023 118.77094  82.95309 118.84589  84.08180 123.41543  85.02894
      11 121.16817  85.12059         36.07929  11.710000 123.41543  85.02894 118.84589  84.08180 118.92090  85.21252 123.49044  86.15965
      11 121.24321  86.25231         36.10937  11.710000 123.49044  86.15965 118.92090  85.21252 118.99598  86.34524 123.56552  87.29238
      11 121.31832  87.38605         36.13947  11.710000 123.56552  87.29238 118.99598  86.34524 119.07111  87.47998 123.64065  88.42712
      11 121.39348  88.52179         36.16960  11.710000 123.64065  88.42712 119.07111  87.47998 119.14631  88.61673 123.71585  89.56387
      11 121.46871  89.65956         36.19975  11.710000 123.71585  89.56387 119.14631  88.61673 119.22157  89.75551 123.79111  90.70265
      11 121.54401  90.79934         36.22993  11.710000 123.79111  90.70265 119.22157  89.75551 119.29690  90.89631 123.86644  91.84344
      11 121.61936  91.94115         36.26014  11.710000 123.86644  91.84344 119.29690  90.89631 119.37228  92.03913 123.94182  92.98627
      11 121.69478  93.08499         36.29037  11.710000 123.94182  92.98627 119.37228  92.03913 119.44773  93.18399 124.01727  94.13112
      11 121.77026  94.23087         36.32062  11.710000 124.01727  94.13112 119.44773  93.18399 119.52325  94.33088 124.09279  95.27801
      11 121.84580  95.37877         36.35090  11.710000 124.09279  95.27801 119.52325  94.33088 119.59882  95.47980 124.16836  96.42694
      11 121.92141  96.52872         36.38121  11.710000 124.16836  96.42694 119.59882  95.47980 119.67446  96.63077 124.24400  97.57791
      11 121.99708  97.68071         36.41154  11.710000 124.24400  97.57791 119.67446  96.63077 119.75016  97.78378 124.31970  98.73092
      11 122.07282  98.83475         36.44189  11.710000 124.31970  98.73092 119.75016  97.78378 119.82593  98.93884 124.39547  99.88598
      11 122.14861  99.99083         36.47227  11.710000 124.39547  99.88598 119.82593  98.93884 119.90176 100.09595 124.47130 101.04309
      11 122.22447 101.14897         36.50268  11.710000 124.47130 101.04309 119.90176 100.09595 119.97765 101.25512 124.54719 102.20226
      11 122.30039 102.30917         36.53311  11.710000 124.54719 102.20226 119.97765 101.25512 120.05360 102.41635 124.62314 103.36348
      11 122.37638 103.47142         36.56357  11.710000 124.62314 103.36348 120.05360 102.41635 120.12962 103.57963 124.69916 104.52677
      11 122.45243 104.63574         36.59405  11.710000 124.69916 104.52677 120.12962 103.57963 120.20570 104.74499 124.77524 105.69212
      11 122.52854 105.80213         36.62456  11.710000 124.77524 105.69212 120.20570 104.74499 120.28184 105.91241 124.85139 106.85955
      11 122.60472 106.97059         36.65509  11.710000 124.85139 106.85955 120.28184 105.91241 120.35805 107.08190 124.92759 108.02904
      11 122.68096 108.14112         36.68565  11.710000 124.92759 108.02904 120.35805 107.08190 120.43432 108.25347 125.00387 109.20061
      11 122.75726 109.31373         36.71623  11.710000 125.00387 109.20061 120.43432 108.25347 120.51066 109.42712 125.08020 110.37426
      11 122.83363 110.48842         36.74684  11.710000 125.08020 110.37426 120.51066 109.42712 120.58706 110.60286 125.15660 111.55000
      11 122.91006 111.66520         36.77748  11.710000 125.15660 111.55000 120.58706 110.60286 120.66352 111.78068 125.23306 112.72782
      11 122.98655 112.84406         36.80814  11.710000 125.23306 112.72782 120.66352 111.78068 120.74005 112.96059 125.30959 113.90773
      11 123.06311 114.02502         36.83883  11.710000 125.30959 113.90773 120.74005 112.96059 120.81664 114.14260 125.38618 115.08973
      11 123.13973 115.20808         36.86954  11.710000 125.38618 115.08973 120.81664 114.14260 120.89329 115.32670 125.46283 116.27384
      11 123.21642 116.39323         36.90028  11.710000 125.46283 116.27384 120.89329 115.32670 120.97001 116.51290 125.53955 117.46004
      11 123.29317 117.58049         36.93104  11.710000 125.53955 117.46004 120.97001 116.51290 121.04679 117.70121 125.61633 118.64835
      11 123.36998 118.76985         36.96183  11.710000 125.61633 118.64835 121.04679 117.70121 121.12364 118.89163 125.69318 119.83877
      11 123.44686 119.96133         36.99264  11.710000 125.69318 119.83877 121.12364 118.89163 121.20055 120.08416 125.77009 121.03130
      11 123.52380 121.15492         37.02348  11.710000 125.77009 121.03130 121.20055 120.08416 121.27752 121.27881 125.84706 122.22595
      11 123.60081 122.35062         37.05435  11.710000 125.84706 122.22595 121.27752 121.27881 121.35456 122.47558 125.92410 123.42271
      11 123.67788 123.54845         37.08524  11.710000 125.92410 123.42271 121.35456 122.47558 121.43166 123.67447 126.00120 124.62160
      11 123.75502 124.74840         37.11616  11.710000 126.00120 124.62160 121.43166 123.67447 121.50883 124.87548 126.07837 125.82262
      11 123.83221 125.95048         37.14710  11.710000 126.07837 125.82262 121.50883 124.87548 121.58606 126.07863 126.15560 127.02577
      11 123.90948 127.15470         37.17807  11.710000 126.15560 127.02577 121.58606 126.07863 121.66335 127.28391 126.23290 128.23105
      11 123.98680 128.36104         37.20906  11.710000 126.23290 128.23105 121.66335 127.28391 121.74071 128.49133 126.31026 129.43846
