\wavsamp version for S15.0, 2006 Sep 18
\processing time 15:08:07 PST 09/18/2006
\character channelID = 2
| order |x_center |y_center |   wavelength   |  angle   |   x0    |   y0    |   x1    |   y1    |   x2    |   y2    |   x3    |   y3    |
| int   |  real   |  real   |    real        |   real   |  real   |  real   |  real   |  real   |  real   |  real   |  real   |  real   |
       2  78.27220  80.49824         13.90000  -1.200000  95.27889  80.60396  61.28635  81.31601  61.26574  80.39252  95.25829  79.68048
       2  78.25206  79.57476         13.98468  -1.200000  95.25829  79.68048  61.26574  80.39252  61.24607  79.46904  95.23861  78.75700
       2  78.23286  78.65128         14.06935  -1.200000  95.23861  78.75700  61.24607  79.46904  61.22733  78.54556  95.21987  77.83351
       2  78.21458  77.72779         14.15403  -1.200000  95.21987  77.83351  61.22733  78.54556  61.20953  77.62207  95.20207  76.91003
       2  78.19725  76.80431         14.23871  -1.200000  95.20207  76.91003  61.20953  77.62207  61.19266  76.69859  95.18520  75.98655
       2  78.18085  75.88083         14.32338  -1.200000  95.18520  75.98655  61.19266  76.69859  61.17673  75.77511  95.16927  75.06306
       2  78.16539  74.95734         14.40806  -1.200000  95.16927  75.06306  61.17673  75.77511  61.16174  74.85162  95.15428  74.13958
       2  78.15086  74.03386         14.49274  -1.200000  95.15428  74.13958  61.16174  74.85162  61.14767  73.92814  95.14022  73.21610
       2  78.13727  73.11038         14.57741  -1.200000  95.14022  73.21610  61.14767  73.92814  61.13455  73.00466  95.12709  72.29261
       2  78.12461  72.18689         14.66209  -1.200000  95.12709  72.29261  61.13455  73.00466  61.12236  72.08117  95.11490  71.36913
       2  78.11289  71.26341         14.74677  -1.200000  95.11490  71.36913  61.12236  72.08117  61.11111  71.15769  95.10365  70.44565
       2  78.10210  70.33993         14.83145  -1.200000  95.10365  70.44565  61.11111  71.15769  61.10079  70.23421  95.09333  69.52217
       2  78.09225  69.41644         14.91612  -1.200000  95.09333  69.52217  61.10079  70.23421  61.09141  69.31072  95.08395  68.59868
       2  78.08334  68.49296         15.00080  -1.200000  95.08395  68.59868  61.09141  69.31072  61.08296  68.38724  95.07550  67.67520
       2  78.07536  67.56948         15.08548  -1.200000  95.07550  67.67520  61.08296  68.38724  61.07545  67.46376  95.06799  66.75172
       2  78.06831  66.64599         15.17015  -1.200000  95.06799  66.75172  61.07545  67.46376  61.06887  66.54027  95.06141  65.82823
       2  78.06221  65.72251         15.25483  -1.200000  95.06141  65.82823  61.06887  66.54027  61.06323  65.61679  95.05577  64.90475
       2  78.05703  64.79903         15.33951  -1.200000  95.05577  64.90475  61.06323  65.61679  61.05853  64.69331  95.05107  63.98127
       2  78.05280  63.87554         15.42418  -1.200000  95.05107  63.98127  61.05853  64.69331  61.05476  63.76982  95.04730  63.05778
       2  78.04950  62.95206         15.50886  -1.200000  95.04730  63.05778  61.05476  63.76982  61.05192  62.84634  95.04447  62.13430
       2  78.04713  62.02858         15.59354  -1.200000  95.04447  62.13430  61.05192  62.84634  61.05003  61.92286  95.04257  61.21082
       2  78.04570  61.10510         15.67821  -1.200000  95.04257  61.21082  61.05003  61.92286  61.04906  60.99937  95.04161  60.28733
       2  78.04520  60.18161         15.76289  -1.200000  95.04161  60.28733  61.04906  60.99937  61.04904  60.07589  95.04158  59.36385
       2  78.04564  59.25813         15.84757  -1.200000  95.04158  59.36385  61.04904  60.07589  61.04994  59.15241  95.04249  58.44037
       2  78.04702  58.33465         15.93224  -1.200000  95.04249  58.44037  61.04994  59.15241  61.05179  58.22892  95.04433  57.51688
       2  78.04933  57.41116         16.01692  -1.200000  95.04433  57.51688  61.05179  58.22892  61.05457  57.30544  95.04711  56.59340
       2  78.05258  56.48768         16.10160  -1.200000  95.04711  56.59340  61.05457  57.30544  61.05828  56.38196  95.05083  55.66992
       2  78.05676  55.56420         16.18628  -1.200000  95.05083  55.66992  61.05828  56.38196  61.06293  55.45847  95.05548  54.74643
       2  78.06188  54.64071         16.27095  -1.200000  95.05548  54.74643  61.06293  55.45847  61.06852  54.53499  95.06106  53.82295
       2  78.06794  53.71723         16.35563  -1.200000  95.06106  53.82295  61.06852  54.53499  61.07504  53.61151  95.06758  52.89947
       2  78.07492  52.79375         16.44031  -1.200000  95.06758  52.89947  61.07504  53.61151  61.08250  52.68803  95.07504  51.97598
       2  78.08285  51.87026         16.52498  -1.200000  95.07504  51.97598  61.08250  52.68803  61.09089  51.76454  95.08343  51.05250
       2  78.09171  50.94678         16.60966  -1.200000  95.08343  51.05250  61.09089  51.76454  61.10022  50.84106  95.09276  50.12902
       2  78.10151  50.02330         16.69434  -1.200000  95.09276  50.12902  61.10022  50.84106  61.11048  49.91758  95.10303  49.20553
       2  78.11224  49.09981         16.77901  -1.200000  95.10303  49.20553  61.11048  49.91758  61.12168  48.99409  95.11423  48.28205
       2  78.12390  48.17633         16.86369  -1.200000  95.11423  48.28205  61.12168  48.99409  61.13382  48.07061  95.12636  47.35857
       2  78.13651  47.25285         16.94837  -1.200000  95.12636  47.35857  61.13382  48.07061  61.14689  47.14713  95.13943  46.43508
       2  78.15005  46.32936         17.03304  -1.200000  95.13943  46.43508  61.14689  47.14713  61.16089  46.22364  95.15344  45.51160
       2  78.16452  45.40588         17.11772  -1.200000  95.15344  45.51160  61.16089  46.22364  61.17584  45.30016  95.16838  44.58812
       2  78.17993  44.48240         17.20240  -1.200000  95.16838  44.58812  61.17584  45.30016  61.19171  44.37668  95.18426  43.66463
       2  78.19627  43.55891         17.28707  -1.200000  95.18426  43.66463  61.19171  44.37668  61.20853  43.45319  95.20107  42.74115
       2  78.21355  42.63543         17.37175  -1.200000  95.20107  42.74115  61.20853  43.45319  61.22627  42.52971  95.21882  41.81767
       2  78.23177  41.71195         17.45643  -1.200000  95.21882  41.81767  61.22627  42.52971  61.24496  41.60623  95.23750  40.89418
       2  78.25092  40.78846         17.54111  -1.200000  95.23750  40.89418  61.24496  41.60623  61.26458  40.68274  95.25712  39.97070
       2  78.27101  39.86498         17.62578  -1.200000  95.25712  39.97070  61.26458  40.68274  61.28513  39.75926  95.27767  39.04722
       2  78.29203  38.94150         17.71046  -1.200000  95.27767  39.04722  61.28513  39.75926  61.30662  38.83578  95.29917  38.12373
       2  78.31399  38.01801         17.79514  -1.200000  95.29917  38.12373  61.30662  38.83578  61.32905  37.91229  95.32159  37.20025
       2  78.33688  37.09453         17.87981  -1.200000  95.32159  37.20025  61.32905  37.91229  61.35241  36.98881  95.34495  36.27677
       2  78.36071  36.17105         17.96449  -1.200000  95.34495  36.27677  61.35241  36.98881  61.37671  36.06533  95.36925  35.35328
       2  78.38548  35.24756         18.04917  -1.200000  95.36925  35.35328  61.37671  36.06533  61.40194  35.14184  95.39448  34.42980
       2  78.41118  34.32408         18.13384  -1.200000  95.39448  34.42980  61.40194  35.14184  61.42811  34.21836  95.42065  33.50632
       2  78.43781  33.40060         18.21852  -1.200000  95.42065  33.50632  61.42811  34.21836  61.45521  33.29488  95.44775  32.58283
       2  78.46539  32.47711         18.30320  -1.200000  95.44775  32.58283  61.45521  33.29488  61.48325  32.37139  95.47579  31.65935
       2  78.49389  31.55363         18.38787  -1.200000  95.47579  31.65935  61.48325  32.37139  61.51223  31.44791  95.50477  30.73587
       2  78.52333  30.63015         18.47255  -1.200000  95.50477  30.73587  61.51223  31.44791  61.54214  30.52443  95.53468  29.81238
       2  78.55371  29.70666         18.55723  -1.200000  95.53468  29.81238  61.54214  30.52443  61.57298  29.60094  95.56552  28.88890
       2  78.58503  28.78318         18.64190  -1.200000  95.56552  28.88890  61.57298  29.60094  61.60476  28.67746  95.59731  27.96542
       2  78.61728  27.85970         18.72658  -1.200000  95.59731  27.96542  61.60476  28.67746  61.63748  27.75398  95.63002  27.04193
       2  78.65046  26.93621         18.81126  -1.200000  95.63002  27.04193  61.63748  27.75398  61.67113  26.83049  95.66367  26.11845
       2  78.68458  26.01273         18.89594  -1.200000  95.66367  26.11845  61.67113  26.83049  61.70572  25.90701  95.69826  25.19497
       2  78.71964  25.08925         18.98061  -1.200000  95.69826  25.19497  61.70572  25.90701  61.74124  24.98353  95.73379  24.27148
       2  78.75563  24.16576         19.06529  -1.200000  95.73379  24.27148  61.74124  24.98353  61.77770  24.06004  95.77025  23.34800
       2  78.79255  23.24228         19.14997  -1.200000  95.77025  23.34800  61.77770  24.06004  61.81510  23.13656  95.80764  22.42452
       2  78.83042  22.31880         19.23464  -1.200000  95.80764  22.42452  61.81510  23.13656  61.85343  22.21308  95.84597  21.50103
       2  78.86921  21.39531         19.31932  -1.200000  95.84597  21.50103  61.85343  22.21308  61.89269  21.28959  95.88524  20.57755
       2  78.90895  20.47183         19.40400  -1.200000  95.88524  20.57755  61.89269  21.28959  61.93289  20.36611  95.92544  19.65407
       2  78.94962  19.54835         19.48867  -1.200000  95.92544  19.65407  61.93289  20.36611  61.97403  19.44263  95.96657  18.73058
       2  78.99122  18.62486         19.57335  -1.200000  95.96657  18.73058  61.97403  19.44263  62.01610  18.51914  96.00865  17.80710
       2  79.03376  17.70138         19.65803  -1.200000  96.00865  17.80710  62.01610  18.51914  62.05911  17.59566  96.05165  16.88362
       2  79.07724  16.77790         19.74270  -1.200000  96.05165  16.88362  62.05911  17.59566  62.10306  16.67218  96.09560  15.96013
       2  79.12165  15.85441         19.82738  -1.200000  96.09560  15.96013  62.10306  16.67218  62.14793  15.74869  96.14048  15.03665
       2  79.16700  14.93093         19.91206  -1.200000  96.14048  15.03665  62.14793  15.74869  62.19375  14.82521  96.18629  14.11317
       2  79.21328  14.00745         19.99673  -1.200000  96.18629  14.11317  62.19375  14.82521  62.24050  13.90173  96.23304  13.18968
       2  79.26050  13.08396         20.08141  -1.200000  96.23304  13.18968  62.24050  13.90173  62.28818  12.97824  96.28073  12.26620
       2  79.30865  12.16048         20.16609  -1.200000  96.28073  12.26620  62.28818  12.97824  62.33681  12.05476  96.32935  11.34272
       2  79.35774  11.23700         20.25077  -1.200000  96.32935  11.34272  62.33681  12.05476  62.38636  11.13128  96.37891  10.41924
       2  79.40776  10.31351         20.33544  -1.200000  96.37891  10.41924  62.38636  11.13128  62.43685  10.20779  96.42940   9.49575
       2  79.45872   9.39003         20.42012  -1.200000  96.42940   9.49575  62.43685  10.20779  62.48828   9.28431  96.48083   8.57227
       2  79.51062   8.46655         20.50480  -1.200000  96.48083   8.57227  62.48828   9.28431  62.54065   8.36083  96.53319   7.64879
       2  79.56345   7.54306         20.58947  -1.200000  96.53319   7.64879  62.54065   8.36083  62.59394   7.43734  96.58649   6.72530
       2  79.61722   6.61958         20.67415  -1.200000  96.58649   6.72530  62.59394   7.43734  62.64818   6.51386  96.64072   5.80182
       2  79.67192   5.69610         20.75883  -1.200000  96.64072   5.80182  62.64818   6.51386  62.70335   5.59038  96.69589   4.87834
       2  79.72756   4.77261         20.84350  -1.200000  96.69589   4.87834  62.70335   5.59038  62.75945   4.66689  96.75200   3.95485
       2  79.78413   3.84913         20.92818  -1.200000  96.75200   3.95485  62.75945   4.66689  62.81650   3.74341  96.80904   3.03137
       2  79.84164   2.92565         21.01286  -1.200000  96.80904   3.03137  62.81650   3.74341  62.87447   2.81993  96.86701   2.10789
       2  79.90008   2.00217         21.09753  -1.200000  96.86701   2.10789  62.87447   2.81993  62.93338   1.89644  96.92593   1.18440
       2  79.95946   1.07868         21.18221  -1.200000  96.92593   1.18440  62.93338   1.89644  62.99323   0.97296  96.98577   0.26092
       2  80.01978   0.15520         21.26689  -1.200000  96.98577   0.26092  62.99323   0.97296  63.05402   0.04948  97.04656  -0.66256
       3  80.55938 127.85797         19.23464  -1.200000  97.59006 127.96369  63.59752 128.67573  63.52893 127.75225  97.52147 127.04021
       3  80.49126 126.93449         19.40400  -1.200000  97.52147 127.04021  63.52893 127.75225  63.46128 126.82876  97.45382 126.11672
       3  80.42408 126.01100         19.57335  -1.200000  97.45382 126.11672  63.46128 126.82876  63.39456 125.90528  97.38711 125.19324
       3  80.35783 125.08752         19.74270  -1.200000  97.38711 125.19324  63.39456 125.90528  63.32878 124.98180  97.32133 124.26976
       3  80.29251 124.16403         19.91206  -1.200000  97.32133 124.26976  63.32878 124.98180  63.26394 124.05831  97.25648 123.34627
       3  80.22814 123.24055         20.08141  -1.200000  97.25648 123.34627  63.26394 124.05831  63.20003 123.13483  97.19257 122.42279
       3  80.16470 122.31707         20.25077  -1.200000  97.19257 122.42279  63.20003 123.13483  63.13705 122.21135  97.12960 121.49930
       3  80.10219 121.39358         20.42012  -1.200000  97.12960 121.49930  63.13705 122.21135  63.07502 121.28786  97.06756 120.57582
       3  80.04062 120.47010         20.58947  -1.200000  97.06756 120.57582  63.07502 121.28786  63.01391 120.36438  97.00646 119.65234
       3  79.97998 119.54662         20.75883  -1.200000  97.00646 119.65234  63.01391 120.36438  62.95375 119.44090  96.94629 118.72885
       3  79.92028 118.62313         20.92818  -1.200000  96.94629 118.72885  62.95375 119.44090  62.89451 118.51741  96.88706 117.80537
       3  79.86152 117.69965         21.09753  -1.200000  96.88706 117.80537  62.89451 118.51741  62.83622 117.59393  96.82876 116.88189
       3  79.80369 116.77617         21.26689  -1.200000  96.82876 116.88189  62.83622 117.59393  62.77886 116.67045  96.77140 115.95840
       3  79.74680 115.85268         21.43624  -1.200000  96.77140 115.95840  62.77886 116.67045  62.72243 115.74696  96.71497 115.03492
       3  79.69084 114.92920         21.60560  -1.200000  96.71497 115.03492  62.72243 115.74696  62.66694 114.82348  96.65948 114.11144
       1  42.46942 126.87261         19.57335  -1.200000  59.49268 126.99794  25.50014 127.70998  25.44635 126.74740  59.43889 126.03536
       1  42.41600 125.91029         19.74270  -1.200000  59.43889 126.03536  25.44635 126.74740  25.39330 125.78535  59.38585 125.07331
       1  42.36334 124.94851         19.91206  -1.200000  59.38585 125.07331  25.39330 125.78535  25.34101 124.82384  59.33356 124.11179
       1  42.31142 123.98726         20.08141  -1.200000  59.33356 124.11179  25.34101 124.82384  25.28948 123.86285  59.28202 123.15081
       1  42.26026 123.02653         20.25077  -1.200000  59.28202 123.15081  25.28948 123.86285  25.23869 122.90239  59.23123 122.19035
       1  42.20985 122.06634         20.42012  -1.200000  59.23123 122.19035  25.23869 122.90239  25.18866 121.94247  59.18120 121.23042
       1  42.16019 121.10668         20.58947  -1.200000  59.18120 121.23042  25.18866 121.94247  25.13937 120.98307  59.13192 120.27103
       1  42.11129 120.14755         20.75883  -1.200000  59.13192 120.27103  25.13937 120.98307  25.09084 120.02420  59.08339 119.31216
       1  42.06313 119.18895         20.92818  -1.200000  59.08339 119.31216  25.09084 120.02420  25.04307 119.06587  59.03561 118.35383
       1  42.01573 118.23088         21.09753  -1.200000  59.03561 118.35383  25.04307 119.06587  24.99604 118.10807  58.98858 117.39602
       1  41.96908 117.27334         21.26689  -1.200000  58.98858 117.39602  24.99604 118.10807  24.94976 117.15079  58.94231 116.43875
       1  41.92318 116.31634         21.43624  -1.200000  58.94231 116.43875  24.94976 117.15079  24.90424 116.19405  58.89678 115.48201
       1  41.87803 115.35986         21.60560  -1.200000  58.89678 115.48201  24.90424 116.19405  24.85947 115.23784  58.85201 114.52580
       1  41.83364 114.40391         21.77495  -1.200000  58.85201 114.52580  24.85947 115.23784  24.81545 114.28216  58.80799 113.57012
       1  41.79000 113.44850         21.94430  -1.200000  58.80799 113.57012  24.81545 114.28216  24.77219 113.32701  58.76473 112.61497
       1  41.74711 112.49361         22.11366  -1.200000  58.76473 112.61497  24.77219 113.32701  24.72967 112.37239  58.72221 111.66035
       1  41.70497 111.53926         22.28301  -1.200000  58.72221 111.66035  24.72967 112.37239  24.68791 111.41830  58.68045 110.70626
       1  41.66358 110.58543         22.45236  -1.200000  58.68045 110.70626  24.68791 111.41830  24.64690 110.46474  58.63944 109.75270
       1  41.62294 109.63214         22.62172  -1.200000  58.63944 109.75270  24.64690 110.46474  24.60664 109.51171  58.59918 108.79967
       1  41.58306 108.67938         22.79107  -1.200000  58.59918 108.79967  24.60664 109.51171  24.56713 108.55922  58.55967 107.84718
       1  41.54393 107.72715         22.96043  -1.200000  58.55967 107.84718  24.56713 108.55922  24.52837 107.60725  58.52092 106.89521
       1  41.50555 106.77545         23.12978  -1.200000  58.52092 106.89521  24.52837 107.60725  24.49037 106.65582  58.48291 105.94377
       1  41.46792 105.82428         23.29913  -1.200000  58.48291 105.94377  24.49037 106.65582  24.45312 105.70491  58.44566 104.99287
       1  41.43105 104.87364         23.46849  -1.200000  58.44566 104.99287  24.45312 105.70491  24.41662 104.75454  58.40916 104.04249
       1  41.39492 103.92353         23.63784  -1.200000  58.40916 104.04249  24.41662 104.75454  24.38087 103.80469  58.37342 103.09265
       1  41.35955 102.97395         23.80719  -1.200000  58.37342 103.09265  24.38087 103.80469  24.34588 102.85538  58.33842 102.14334
       1  41.32493 102.02490         23.97655  -1.200000  58.33842 102.14334  24.34588 102.85538  24.31163 101.90660  58.30418 101.19455
       1  41.29107 101.07638         24.14590  -1.200000  58.30418 101.19455  24.31163 101.90660  24.27814 100.95835  58.27068 100.24630
       1  41.25795 100.12840         24.31526  -1.200000  58.27068 100.24630  24.27814 100.95835  24.24540 100.01062  58.23795  99.29858
       1  41.22559  99.18094         24.48461  -1.200000  58.23795  99.29858  24.24540 100.01062  24.21341  99.06343  58.20596  98.35139
       1  41.19397  98.23402         24.65396  -1.200000  58.20596  98.35139  24.21341  99.06343  24.18218  98.11677  58.17472  97.40473
       1  41.16311  97.28762         24.82332  -1.200000  58.17472  97.40473  24.18218  98.11677  24.15169  97.17065  58.14424  96.45860
       1  41.13301  96.34176         24.99267  -1.200000  58.14424  96.45860  24.15169  97.17065  24.12196  96.22505  58.11451  95.51300
       1  41.10365  95.39643         25.16202  -1.200000  58.11451  95.51300  24.12196  96.22505  24.09298  95.27998  58.08553  94.56794
       1  41.07505  94.45162         25.33138  -1.200000  58.08553  94.56794  24.09298  95.27998  24.06475  94.33544  58.05730  93.62340
       1  41.04719  93.50735         25.50073  -1.200000  58.05730  93.62340  24.06475  94.33544  24.03728  93.39144  58.02982  92.67939
       1  41.02009  92.56361         25.67009  -1.200000  58.02982  92.67939  24.03728  93.39144  24.01055  92.44796  58.00310  91.73592
       1  40.99375  91.62040         25.83944  -1.200000  58.00310  91.73592  24.01055  92.44796  23.98458  91.50502  57.97712  90.79297
       1  40.96815  90.67772         26.00879  -1.200000  57.97712  90.79297  23.98458  91.50502  23.95936  90.56260  57.95190  89.85056
       1  40.94330  89.73557         26.17815  -1.200000  57.95190  89.85056  23.95936  90.56260  23.93489  89.62072  57.92744  88.90868
       1  40.91921  88.79395         26.34750  -1.200000  57.92744  88.90868  23.93489  89.62072  23.91118  88.67936  57.90372  87.96732
       1  40.89587  87.85287         26.51685  -1.200000  57.90372  87.96732  23.91118  88.67936  23.88821  87.73854  57.88075  87.02650
       1  40.87328  86.91231         26.68621  -1.200000  57.88075  87.02650  23.88821  87.73854  23.86600  86.79825  57.85854  86.08621
       1  40.85145  85.97228         26.85556  -1.200000  57.85854  86.08621  23.86600  86.79825  23.84454  85.85849  57.83708  85.14645
       1  40.83036  85.03279         27.02492  -1.200000  57.83708  85.14645  23.84454  85.85849  23.82383  84.91926  57.81637  84.20722
       1  40.81003  84.09382         27.19427  -1.200000  57.81637  84.20722  23.82383  84.91926  23.80387  83.98056  57.79642  83.26852
       1  40.79045  83.15539         27.36362  -1.200000  57.79642  83.26852  23.80387  83.98056  23.78467  83.04239  57.77721  82.33035
       1  40.77162  82.21748         27.53298  -1.200000  57.77721  82.33035  23.78467  83.04239  23.76621  82.10475  57.75876  81.39271
       1  40.75354  81.28011         27.70233  -1.200000  57.75876  81.39271  23.76621  82.10475  23.74851  81.16764  57.74106  80.45560
       1  40.73622  80.34327         27.87168  -1.200000  57.74106  80.45560  23.74851  81.16764  23.73156  80.23107  57.72411  79.51902
       1  40.71964  79.40696         28.04104  -1.200000  57.72411  79.51902  23.73156  80.23107  23.71537  79.29502  57.70791  78.58298
       1  40.70382  78.47118         28.21039  -1.200000  57.70791  78.58298  23.71537  79.29502  23.69992  78.35951  57.69246  77.64746
       1  40.68875  77.53593         28.37975  -1.200000  57.69246  77.64746  23.69992  78.35951  23.68523  77.42452  57.67777  76.71248
       1  40.67443  76.60121         28.54910  -1.200000  57.67777  76.71248  23.68523  77.42452  23.67129  76.49007  57.66383  75.77802
       1  40.66087  75.66702         28.71845  -1.200000  57.66383  75.77802  23.67129  76.49007  23.65810  75.55614  57.65064  74.84410
       1  40.64806  74.73336         28.88781  -1.200000  57.65064  74.84410  23.65810  75.55614  23.64566  74.62275  57.63820  73.91071
       1  40.63599  73.80023         29.05716  -1.200000  57.63820  73.91071  23.64566  74.62275  23.63397  73.68989  57.62652  72.97784
       1  40.62468  72.86763         29.22651  -1.200000  57.62652  72.97784  23.63397  73.68989  23.62304  72.75755  57.61558  72.04551
       1  40.61413  71.93557         29.39587  -1.200000  57.61558  72.04551  23.62304  72.75755  23.61286  71.82575  57.60540  71.11371
       1  40.60432  71.00403         29.56522  -1.200000  57.60540  71.11371  23.61286  71.82575  23.60343  70.89448  57.59597  70.18244
       1  40.59527  70.07303         29.73458  -1.200000  57.59597  70.18244  23.60343  70.89448  23.59475  69.96374  57.58729  69.25170
       1  40.58697  69.14255         29.90393  -1.200000  57.58729  69.25170  23.59475  69.96374  23.58682  69.03353  57.57937  68.32149
       1  40.57942  68.21261         30.07328  -1.200000  57.57937  68.32149  23.58682  69.03353  23.57965  68.10386  57.57219  67.39181
       1  40.57262  67.28319         30.24264  -1.200000  57.57219  67.39181  23.57965  68.10386  23.57323  67.17471  57.56577  66.46267
       1  40.56657  66.35431         30.41199  -1.200000  57.56577  66.46267  23.57323  67.17471  23.56756  66.24609  57.56010  65.53405
       1  40.56128  65.42596         30.58134  -1.200000  57.56010  65.53405  23.56756  66.24609  23.56264  65.31801  57.55518  64.60596
       1  40.55673  64.49814         30.75070  -1.200000  57.55518  64.60596  23.56264  65.31801  23.55847  64.39045  57.55102  63.67841
       1  40.55294  63.57085         30.92005  -1.200000  57.55102  63.67841  23.55847  64.39045  23.55506  63.46342  57.54760  62.75138
       1  40.54991  62.64409         31.08941  -1.200000  57.54760  62.75138  23.55506  63.46342  23.55240  62.53693  57.54494  61.82489
       1  40.54762  61.71786         31.25876  -1.200000  57.54494  61.82489  23.55240  62.53693  23.55049  61.61097  57.54303  60.89892
       1  40.54608  60.79216         31.42811  -1.200000  57.54303  60.89892  23.55049  61.61097  23.54933  60.68553  57.54187  59.97349
       1  40.54530  59.86699         31.59747  -1.200000  57.54187  59.97349  23.54933  60.68553  23.54892  59.76063  57.54146  59.04859
       1  40.54527  58.94236         31.76682  -1.200000  57.54146  59.04859  23.54892  59.76063  23.54927  58.83626  57.54181  58.12422
       1  40.54599  58.01825         31.93617  -1.200000  57.54181  58.12422  23.54927  58.83626  23.55036  57.91242  57.54291  57.20038
       1  40.54747  57.09468         32.10553  -1.200000  57.54291  57.20038  23.55036  57.91242  23.55221  56.98911  57.54476  56.27707
       1  40.54969  56.17163         32.27488  -1.200000  57.54476  56.27707  23.55221  56.98911  23.55481  56.06633  57.54736  55.35429
       1  40.55267  55.24912         32.44424  -1.200000  57.54736  55.35429  23.55481  56.06633  23.55817  55.14408  57.55071  54.43204
       1  40.55640  54.32713         32.61359  -1.200000  57.55071  54.43204  23.55817  55.14408  23.56227  54.22236  57.55482  53.51032
       1  40.56088  53.40568         32.78294  -1.200000  57.55482  53.51032  23.56227  54.22236  23.56713  53.30117  57.55967  52.58913
       1  40.56611  52.48476         32.95230  -1.200000  57.55967  52.58913  23.56713  53.30117  23.57274  52.38052  57.56528  51.66847
       1  40.57210  51.56436         33.12165  -1.200000  57.56528  51.66847  23.57274  52.38052  23.57910  51.46039  57.57164  50.74835
       1  40.57883  50.64450         33.29100  -1.200000  57.57164  50.74835  23.57910  51.46039  23.58621  50.54079  57.57875  49.82875
       1  40.58632  49.72517         33.46036  -1.200000  57.57875  49.82875  23.58621  50.54079  23.59408  49.62173  57.58662  48.90969
       1  40.59456  48.80637         33.62971  -1.200000  57.58662  48.90969  23.59408  49.62173  23.60269  48.70319  57.59524  47.99115
       1  40.60355  47.88810         33.79907  -1.200000  57.59524  47.99115  23.60269  48.70319  23.61206  47.78519  57.60460  47.07315
       1  40.61330  46.97037         33.96842  -1.200000  57.60460  47.07315  23.61206  47.78519  23.62218  46.86772  57.61472  46.15567
       1  40.62380  46.05316         34.13777  -1.200000  57.61472  46.15567  23.62218  46.86772  23.63305  45.95077  57.62560  45.23873
       1  40.63504  45.13648         34.30713  -1.200000  57.62560  45.23873  23.63305  45.95077  23.64468  45.03436  57.63722  44.32232
       1  40.64704  44.22033         34.47648  -1.200000  57.63722  44.32232  23.64468  45.03436  23.65705  44.11848  57.64960  43.40644
       1  40.65980  43.30472         34.64583  -1.200000  57.64960  43.40644  23.65705  44.11848  23.67018  43.20313  57.66273  42.49109
       1  40.67330  42.38963         34.81519  -1.200000  57.66273  42.49109  23.67018  43.20313  23.68406  42.28831  57.67661  41.57627
       1  40.68756  41.47508         34.98454  -1.200000  57.67661  41.57627  23.68406  42.28831  23.69870  41.37402  57.69124  40.66198
       1  40.70256  40.56106         35.15390  -1.200000  57.69124  40.66198  23.69870  41.37402  23.71408  40.46026  57.70662  39.74822
       1  40.71832  39.64756         35.32325  -1.200000  57.70662  39.74822  23.71408  40.46026  23.73022  39.54704  57.72276  38.83499
       1  40.73484  38.73460         35.49260  -1.200000  57.72276  38.83499  23.73022  39.54704  23.74710  38.63434  57.73965  37.92230
       1  40.75210  37.82217         35.66196  -1.200000  57.73965  37.92230  23.74710  38.63434  23.76474  37.72217  57.75729  37.01013
       1  40.77012  36.91027         35.83131  -1.200000  57.75729  37.01013  23.76474  37.72217  23.78313  36.81054  57.77568  36.09849
       1  40.78888  35.99890         36.00066  -1.200000  57.77568  36.09849  23.78313  36.81054  23.80228  35.89943  57.79482  35.18739
       1  40.80840  35.08806         36.17002  -1.200000  57.79482  35.18739  23.80228  35.89943  23.82217  34.98886  57.81472  34.27681
       1  40.82867  34.17775         36.33937  -1.200000  57.81472  34.27681  23.82217  34.98886  23.84282  34.07881  57.83536  33.36677
       1  40.84970  33.26797         36.50873  -1.200000  57.83536  33.36677  23.84282  34.07881  23.86422  33.16930  57.85676  32.45726
       1  40.87147  32.35872         36.67808  -1.200000  57.85676  32.45726  23.86422  33.16930  23.88637  32.26032  57.87891  31.54827
       1  40.89400  31.45000         36.84743  -1.200000  57.87891  31.54827  23.88637  32.26032  23.90928  31.35187  57.90182  30.63982
       1  40.91728  30.54182         37.01679  -1.200000  57.90182  30.63982  23.90928  31.35187  23.93293  30.44394  57.92547  29.73190
       1  40.94131  29.63416         37.18614  -1.200000  57.92547  29.73190  23.93293  30.44394  23.95734  29.53655  57.94988  28.82451
       1  40.96609  28.72704         37.35549  -1.200000  57.94988  28.82451  23.95734  29.53655  23.98250  28.62969  57.97504  27.91765
       1  40.99163  27.82044         37.52485  -1.200000  57.97504  27.91765  23.98250  28.62969  24.00841  27.72336  58.00095  27.01132
       1  41.01792  26.91438         37.69420  -1.200000  58.00095  27.01132  24.00841  27.72336  24.03507  26.81757  58.02761  26.10552
       1  41.04496  26.00884         37.86356  -1.200000  58.02761  26.10552  24.03507  26.81757  24.06249  25.91230  58.05503  25.20026
       1  41.07275  25.10384         38.03291  -1.200000  58.05503  25.20026  24.06249  25.91230  24.09065  25.00756  58.08320  24.29552
       1  41.10129  24.19937         38.20226  -1.200000  58.08320  24.29552  24.09065  25.00756  24.11957  24.10335  58.11211  23.39131
       1  41.13058  23.29543         38.37162  -1.200000  58.11211  23.39131  24.11957  24.10335  24.14924  23.19968  58.14178  22.48764
       1  41.16063  22.39202         38.54097  -1.200000  58.14178  22.48764  24.14924  23.19968  24.17966  22.29653  58.17221  21.58449
       1  41.19143  21.48914         38.71032  -1.200000  58.17221  21.58449  24.17966  22.29653  24.21084  21.39392  58.20338  20.68188
       1  41.22298  20.58679         38.87968  -1.200000  58.20338  20.68188  24.21084  21.39392  24.24277  20.49184  58.23531  19.77979
       1  41.25528  19.68497         39.04903  -1.200000  58.23531  19.77979  24.24277  20.49184  24.27544  19.59028  58.26799  18.87824
       1  41.28834  18.78368         39.21839  -1.200000  58.26799  18.87824  24.27544  19.59028  24.30887  18.68926  58.30142  17.97722
       1  41.32214  17.88293         39.38774  -1.200000  58.30142  17.97722  24.30887  18.68926  24.34306  17.78877  58.33560  17.07673
       1  41.35670  16.98270         39.55709  -1.200000  58.33560  17.07673  24.34306  17.78877  24.37799  16.88881  58.37053  16.17676
       1  41.39201  16.08300         39.72645  -1.200000  58.37053  16.17676  24.37799  16.88881  24.41368  15.98938  58.40622  15.27733
       1  41.42807  15.18384         39.89580  -1.200000  58.40622  15.27733  24.41368  15.98938  24.45012  15.09048  58.44266  14.37843
       1  41.46489  14.28520         40.06515  -1.200000  58.44266  14.37843  24.45012  15.09048  24.48731  14.19211  58.47985  13.48006
       1  41.50245  13.38710         40.23451  -1.200000  58.47985  13.48006  24.48731  14.19211  24.52525  13.29427  58.51779  12.58223
       1  41.54077  12.48953         40.40386  -1.200000  58.51779  12.58223  24.52525  13.29427  24.56394  12.39696  58.55648  11.68492
       1  41.57984  11.59248         40.57322  -1.200000  58.55648  11.68492  24.56394  12.39696  24.60339  11.50018  58.59593  10.78814
       1  41.61966  10.69597         40.74257  -1.200000  58.59593  10.78814  24.60339  11.50018  24.64359  10.60394  58.63613   9.89189
       1  41.66024   9.79999         40.91192  -1.200000  58.63613   9.89189  24.64359  10.60394  24.68453   9.70822  58.67708   8.99618
       1  41.70156   8.90454         41.08128  -1.200000  58.67708   8.99618  24.68453   9.70822  24.72624   8.81304  58.71878   8.10099
       1  41.74364   8.00962         41.25063  -1.200000  58.71878   8.10099  24.72624   8.81304  24.76869   7.91838  58.76123   7.20634
       1  41.78647   7.11523         41.41998  -1.200000  58.76123   7.20634  24.76869   7.91838  24.81190   7.02426  58.80444   6.31222
       1  41.83005   6.22137         41.58934  -1.200000  58.80444   6.31222  24.81190   7.02426  24.85585   6.13066  58.84840   5.41862
       1  41.87439   5.32805         41.75869  -1.200000  58.84840   5.41862  24.85585   6.13066  24.90056   5.23760  58.89311   4.52556
       1  41.91947   4.43525         41.92805  -1.200000  58.89311   4.52556  24.90056   5.23760  24.94602   4.34507  58.93857   3.63303
       1  41.96531   3.54298         42.09740  -1.200000  58.93857   3.63303  24.94602   4.34507  24.99224   3.45307  58.98478   2.74103
       1  42.01190   2.65125         42.26675  -1.200000  58.98478   2.74103  24.99224   3.45307  25.03920   2.56160  59.03174   1.84956
       1  42.05924   1.76004         42.43611  -1.200000  59.03174   1.84956  25.03920   2.56160  25.08692   1.67066  59.07946   0.95862
