\wavsamp version 3.0 (Fri Jul 28 12:09:58 PDT 2000)
\processing time 14:20:57 PST 11/13/2001
| order |x_center |y_center |   wavelength   |  angle   |   x0    |   y0    |   x1    |   y1    |   x2    |   y2    |   x3    |   y3    |
| int   |  real   |  real   |    real        |   real   |  real   |  real   |  real   |  real   |  real   |  real   |  real   |  real   |
20       121.33905 128.01608         10.00000   0.170000 124.08223 128.63544 118.58225 128.61912 118.59588 127.39672 124.09586 127.41304
20       121.35272 126.79317         10.00834   0.170000 124.09586 127.41304 118.59588 127.39672 118.60959 126.17330 124.10957 126.18962
20       121.36646 125.56924         10.01668   0.170000 124.10957 126.18962 118.60959 126.17330 118.62338 124.94886 124.12335 124.96517
20       121.38029 124.34428         10.02503   0.170000 124.12335 124.96517 118.62338 124.94886 118.63725 123.72339 124.13723 123.73971
20       121.39421 123.11831         10.03339   0.170000 124.13723 123.73971 118.63725 123.72339 118.65122 122.49691 124.15119 122.51323
20       121.40823 121.89131         10.04175   0.170000 124.15119 122.51323 118.65122 122.49691 118.66528 121.26940 124.16526 121.28572
20       121.42235 120.66329         10.05013   0.170000 124.16526 121.28572 118.66528 121.26940 118.67946 120.04087 124.17943 120.05719
20       121.43657 119.43425         10.05850   0.170000 124.17943 120.05719 118.67946 120.04087 118.69374 118.81131 124.19372 118.82763
20       121.45092 118.20418         10.06689   0.170000 124.19372 118.82763 118.69374 118.81131 118.70815 117.58073 124.20812 117.59705
20       121.46539 116.97309         10.07528   0.170000 124.20812 117.59705 118.70815 117.58073 118.72268 116.34913 124.22265 116.36545
20       121.47998 115.74097         10.08368   0.170000 124.22265 116.36545 118.72268 116.34913 118.73734 115.11649 124.23732 115.13281
20       121.49471 114.50782         10.09209   0.170000 124.23732 115.13281 118.73734 115.11649 118.75214 113.88283 124.25212 113.89915
20       121.50958 113.27365         10.10050   0.170000 124.25212 113.89915 118.75214 113.88283 118.76709 112.64815 124.26706 112.66446
20       121.52461 112.03845         10.10892   0.170000 124.26706 112.66446 118.76709 112.64815 118.78218 111.41243 124.28216 111.42875
20       121.53978 110.80221         10.11735   0.170000 124.28216 111.42875 118.78218 111.41243 118.79744 110.17568 124.29741 110.19200
20       121.55512 109.56495         10.12578   0.170000 124.29741 110.19200 118.79744 110.17568 118.81286 108.93790 124.31284 108.95422
20       121.57062 108.32665         10.13423   0.170000 124.31284 108.95422 118.81286 108.93790 118.82845 107.69909 124.32843 107.71541
20       121.58630 107.08733         10.14267   0.170000 124.32843 107.71541 118.82845 107.69909 118.84422 106.45924 124.34420 106.47556
20       121.60217 105.84696         10.15113   0.170000 124.34420 106.47556 118.84422 106.45924 118.86018 105.21837 124.36015 105.23468
20       121.61822 104.60557         10.15959   0.170000 124.36015 105.23468 118.86018 105.21837 118.87632 103.97645 124.37630 103.99277
20       121.63446 103.36314         10.16806   0.170000 124.37630 103.99277 118.87632 103.97645 118.89267 102.73351 124.39265 102.74983
20       121.65091 102.11967         10.17654   0.170000 124.39265 102.74983 118.89267 102.73351 118.90922 101.48952 124.40920 101.50584
20       121.66756 100.87517         10.18502   0.170000 124.40920 101.50584 118.90922 101.48952 118.92598 100.24450 124.42596 100.26082
20       121.68444  99.62963         10.19352   0.170000 124.42596 100.26082 118.92598 100.24450 118.94297  98.99844 124.44294  99.01476
20       121.70153  98.38305         10.20201   0.170000 124.44294  99.01476 118.94297  98.99844 118.96018  97.75135 124.46015  97.76766
20       121.71886  97.13544         10.21052   0.170000 124.46015  97.76766 118.96018  97.75135 118.97762  96.50321 124.47759  96.51953
20       121.73642  95.88678         10.21903   0.170000 124.47759  96.51953 118.97762  96.50321 118.99530  95.25403 124.49527  95.27035
20       121.75422  94.63708         10.22755   0.170000 124.49527  95.27035 118.99530  95.25403 119.01323  94.00381 124.51320  94.02013
20       121.77228  93.38634         10.23608   0.170000 124.51320  94.02013 119.01323  94.00381 119.03141  92.75255 124.53139  92.76887
20       121.79059  92.13456         10.24461   0.170000 124.53139  92.76887 119.03141  92.75255 119.04986  91.50024 124.54983  91.51656
20       121.80917  90.88173         10.25315   0.170000 124.54983  91.51656 119.04986  91.50024 119.06857  90.24690 124.56854  90.26321
20       121.82802  89.62786         10.26170   0.170000 124.56854  90.26321 119.06857  90.24690 119.08756  88.99250 124.58753  89.00882
20       121.84715  88.37294         10.27025   0.170000 124.58753  89.00882 119.08756  88.99250 119.10683  87.73706 124.60681  87.75338
20       121.86656  87.11698         10.27882   0.170000 124.60681  87.75338 119.10683  87.73706 119.12639  86.48058 124.62637  86.49690
20       121.88627  85.85997         10.28739   0.170000 124.62637  86.49690 119.12639  86.48058 119.14625  85.22304 124.64623  85.23936
20       121.90628  84.60191         10.29596   0.170000 124.64623  85.23936 119.14625  85.22304 119.16641  83.96446 124.66639  83.98078
20       121.92660  83.34281         10.30455   0.170000 124.66639  83.98078 119.16641  83.96446 119.18689  82.70483 124.68687  82.72115
20       121.94724  82.08265         10.31314   0.170000 124.68687  82.72115 119.18689  82.70483 119.20768  81.44415 124.70766  81.46047
20       121.96819  80.82144         10.32173   0.170000 124.70766  81.46047 119.20768  81.44415 119.22881  80.18242 124.72878  80.19874
20       121.98948  79.55918         10.33034   0.170000 124.72878  80.19874 119.22881  80.18242 119.25026  78.91963 124.75024  78.93595
20       122.01111  78.29587         10.33895   0.170000 124.75024  78.93595 119.25026  78.91963 119.27206  77.65580 124.77204  77.67212
20       122.03308  77.03151         10.34757   0.170000 124.77204  77.67212 119.27206  77.65580 119.29421  76.39091 124.79418  76.40722
20       122.05541  75.76609         10.35620   0.170000 124.79418  76.40722 119.29421  76.39091 119.31671  75.12496 124.81669  75.14128
20       122.07809  74.49962         10.36483   0.170000 124.81669  75.14128 119.31671  75.12496 119.33958  73.85796 124.83956  73.87428
20       122.10114  73.23209         10.37347   0.170000 124.83956  73.87428 119.33958  73.85796 119.36282  72.58990 124.86280  72.60622
20       122.12457  71.96351         10.38212   0.170000 124.86280  72.60622 119.36282  72.58990 119.38644  71.32079 124.88642  71.33711
20       122.14839  70.69386         10.39078   0.170000 124.88642  71.33711 119.38644  71.32079 119.41045  70.05062 124.91042  70.06694
20       122.17259  69.42316         10.39944   0.170000 124.91042  70.06694 119.41045  70.05062 119.43485  68.77939 124.93483  68.79571
20       122.19719  68.15140         10.40811   0.170000 124.93483  68.79571 119.43485  68.77939 119.45966  67.50710 124.95963  67.52342
20       122.22220  66.87858         10.41678   0.170000 124.95963  67.52342 119.45966  67.50710 119.48487  66.23375 124.98485  66.25006
20       122.24763  65.60470         10.42547   0.170000 124.98485  66.25006 119.48487  66.23375 119.51051  64.95933 125.01048  64.97565
20       122.27347  64.32976         10.43416   0.170000 125.01048  64.97565 119.51051  64.95933 119.53657  63.68386 125.03654  63.70018
20       122.29975  63.05375         10.44286   0.170000 125.03654  63.70018 119.53657  63.68386 119.56306  62.40732 125.06304  62.42364
20       122.32647  61.77668         10.45157   0.170000 125.06304  62.42364 119.56306  62.40732 119.59000  61.12972 125.08998  61.14604
20       122.35363  60.49854         10.46028   0.170000 125.08998  61.14604 119.59000  61.12972 119.61739  59.85105 125.11736  59.86737
20       122.38124  59.21934         10.46900   0.170000 125.11736  59.86737 119.61739  59.85105 119.64523  58.57131 125.14521  58.58763
20       122.40932  57.93907         10.47773   0.170000 125.14521  58.58763 119.64523  58.57131 119.67355  57.29051 125.17352  57.30683
20       122.43787  56.65774         10.48646   0.170000 125.17352  57.30683 119.67355  57.29051 119.70233  56.00865 125.20231  56.02496
20       122.46690  55.37534         10.49520   0.170000 125.20231  56.02496 119.70233  56.00865 119.73160  54.72571 125.23158  54.74203
20       122.49641  54.09186         10.50395   0.170000 125.23158  54.74203 119.73160  54.72571 119.76136  53.44170 125.26134  53.45802
20       122.52642  52.80732         10.51271   0.170000 125.26134  53.45802 119.76136  53.44170 119.79162  52.15662 125.29160  52.17294
20       122.55693  51.52171         10.52148   0.170000 125.29160  52.17294 119.79162  52.15662 119.82239  50.87048 125.32236  50.88679
20       122.58795  50.23503         10.53025   0.170000 125.32236  50.88679 119.82239  50.87048 119.85367  49.58326 125.35364  49.59957
20       122.61950  48.94727         10.53903   0.170000 125.35364  49.59957 119.85367  49.58326 119.88547  48.29496 125.38545  48.31128
20       122.65157  47.65844         10.54781   0.170000 125.38545  48.31128 119.88547  48.29496 119.91781  47.00559 125.41779  47.02191
20       122.68417  46.36853         10.55661   0.170000 125.41779  47.02191 119.91781  47.00559 119.95069  45.71515 125.45066  45.73147
20       122.71732  45.07755         10.56541   0.170000 125.45066  45.73147 119.95069  45.71515 119.98411  44.42363 125.48409  44.43995
20       122.75103  43.78549         10.57421   0.170000 125.48409  44.43995 119.98411  44.42363 120.01810  43.13104 125.51807  43.14736
20       122.78529  42.49236         10.58303   0.170000 125.51807  43.14736 120.01810  43.13104 120.05265  41.83736 125.55262  41.85368
20       122.82013  41.19815         10.59185   0.170000 125.55262  41.85368 120.05265  41.83736 120.08777  40.54261 125.58775  40.55893
20       122.85554  39.90286         10.60068   0.170000 125.58775  40.55893 120.08777  40.54261 120.12348  39.24678 125.62345  39.26310
20       122.89154  38.60649         10.60952   0.170000 125.62345  39.26310 120.12348  39.24678 120.15978  37.94987 125.65975  37.96619
20       122.92814  37.30903         10.61837   0.170000 125.65975  37.96619 120.15978  37.94987 120.19668  36.65188 125.69665  36.66820
20       122.96535  36.01050         10.62722   0.170000 125.69665  36.66820 120.19668  36.65188 120.23418  35.35280 125.73416  35.36912
20       123.00316  34.71088         10.63608   0.170000 125.73416  35.36912 120.23418  35.35280 120.27231  34.05265 125.77229  34.06897
20       123.04160  33.41019         10.64494   0.170000 125.77229  34.06897 120.27231  34.05265 120.31106  32.75140 125.81104  32.76772
20       123.08067  32.10840         10.65382   0.170000 125.81104  32.76772 120.31106  32.75140 120.35045  31.44908 125.85042  31.46540
20       123.12038  30.80553         10.66270   0.170000 125.85042  31.46540 120.35045  31.44908 120.39048  30.14567 125.89046  30.16199
20       123.16073  29.50158         10.67159   0.170000 125.89046  30.16199 120.39048  30.14567 120.43117  28.84117 125.93114  28.85749
20       123.20175  28.19653         10.68049   0.170000 125.93114  28.85749 120.43117  28.84117 120.47251  27.53558 125.97249  27.55190
20       123.24343  26.89040         10.68939   0.170000 125.97249  27.55190 120.47251  27.53558 120.51453  26.22891 126.01451  26.24523
20       123.28579  25.58319         10.69830   0.170000 126.01451  26.24523 120.51453  26.22891 120.55723  24.92114 126.05720  24.93746
20       123.32883  24.27488         10.70722   0.170000 126.05720  24.93746 120.55723  24.92114 120.60061  23.61229 126.10059  23.62861
20       123.37256  22.96548         10.71615   0.170000 126.10059  23.62861 120.60061  23.61229 120.64470  22.30234 126.14467  22.31866
20       123.41700  21.65499         10.72508   0.170000 126.14467  22.31866 120.64470  22.30234 120.68949  20.99131 126.18947  21.00763
20       123.46215  20.34340         10.73402   0.170000 126.18947  21.00763 120.68949  20.99131 120.73500  19.67918 126.23498  19.69550
20       123.50802  19.03072         10.74297   0.170000 126.23498  19.69550 120.73500  19.67918 120.78123  18.36595 126.28121  18.38227
20       123.55462  17.71695         10.75193   0.170000 126.28121  18.38227 120.78123  18.36595 120.82820  17.05163 126.32818  17.06795
20       123.60196  16.40209         10.76089   0.170000 126.32818  17.06795 120.82820  17.05163 120.87592  15.73622 126.37589  15.75254
20       123.65005  15.08612         10.76986   0.170000 126.37589  15.75254 120.87592  15.73622 120.92438  14.41971 126.42436  14.43603
20       123.69890  13.76906         10.77884   0.170000 126.42436  14.43603 120.92438  14.41971 120.97361  13.10210 126.47359  13.11842
20       123.74851  12.45090         10.78783   0.170000 126.47359  13.11842 120.97361  13.10210 121.02362  11.78339 126.52359  11.79971
20       123.79890  11.13165         10.79682   0.170000 126.52359  11.79971 121.02362  11.78339 121.07440  10.46359 126.57438  10.47990
20       123.85008   9.81129         10.80582   0.170000 126.57438  10.47990 121.07440  10.46359 121.12598   9.14268 126.62595   9.15900
20       123.90206   8.48983         10.81483   0.170000 126.62595   9.15900 121.12598   9.14268 121.17835   7.82067 126.67833   7.83699
20       123.95484   7.16727         10.82385   0.170000 126.67833   7.83699 121.17835   7.82067 121.23154   6.49756 126.73152   6.51388
20       124.00844   5.84361         10.83287   0.170000 126.73152   6.51388 121.23154   6.49756 121.28555   5.17335 126.78552   5.18966
20       124.06286   4.51885         10.84190   0.170000 126.78552   5.18966 121.28555   5.17335 121.34039   3.84803 126.84036   3.86435
20       124.11811   3.19298         10.85094   0.170000 126.84036   3.86435 121.34039   3.84803 121.39606   2.52161 126.89604   2.53793
20       124.17421   1.86600         10.85999   0.170000 126.89604   2.53793 121.39606   2.52161 121.45259   1.19408 126.95256   1.21040
19       114.08612 127.39275         10.52148   0.230000 116.83196 128.01513 111.33200 127.99306 111.34037 126.77037 116.84033 126.79245
19       114.09468 126.16956         10.53025   0.230000 116.84033 126.79245 111.34037 126.77037 111.34912 125.54667 116.84907 125.56875
19       114.10361 124.94535         10.53903   0.230000 116.84907 125.56875 111.34912 125.54667 111.35823 124.32195 116.85818 124.34403
19       114.11290 123.72012         10.54781   0.230000 116.85818 124.34403 111.35823 124.32195 111.36770 123.09620 116.86766 123.11828
19       114.12256 122.49386         10.55661   0.230000 116.86766 123.11828 111.36770 123.09620 111.37754 121.86944 116.87750 121.89152
19       114.13258 121.26658         10.56541   0.230000 116.87750 121.89152 111.37754 121.86944 111.38775 120.64165 116.88770 120.66372
19       114.14296 120.03828         10.57421   0.230000 116.88770 120.66372 111.38775 120.64165 111.39830 119.41283 116.89826 119.43491
19       114.15370 118.80895         10.58303   0.230000 116.89826 119.43491 111.39830 119.41283 111.40922 118.18299 116.90917 118.20507
19       114.16479 117.57860         10.59185   0.230000 116.90917 118.20507 111.40922 118.18299 111.42049 116.95213 116.92044 116.97421
19       114.17623 116.34722         10.60068   0.230000 116.92044 116.97421 111.42049 116.95213 111.43210 115.72024 116.93206 115.74231
19       114.18802 115.11481         10.60952   0.230000 116.93206 115.74231 111.43210 115.72024 111.44407 114.48732 116.94403 114.50939
19       114.20016 113.88138         10.61837   0.230000 116.94403 114.50939 111.44407 114.48732 111.45638 113.25337 116.95634 113.27545
19       114.21264 112.64692         10.62722   0.230000 116.95634 113.27545 111.45638 113.25337 111.46904 112.01839 116.96899 112.04047
19       114.22547 111.41143         10.63608   0.230000 116.96899 112.04047 111.46904 112.01839 111.48203 110.78238 116.98199 110.80446
19       114.23863 110.17490         10.64494   0.230000 116.98199 110.80446 111.48203 110.78238 111.49536 109.54534 116.99532 109.56742
19       114.25213 108.93735         10.65382   0.230000 116.99532 109.56742 111.49536 109.54534 111.50903 108.30727 117.00899 108.32935
19       114.26597 107.69876         10.66270   0.230000 117.00899 108.32935 111.50903 108.30727 111.52303 107.06817 117.02298 107.09025
19       114.28013 106.45914         10.67159   0.230000 117.02298 107.09025 111.52303 107.06817 111.53736 105.82803 117.03731 105.85011
19       114.29462 105.21849         10.68049   0.230000 117.03731 105.85011 111.53736 105.82803 111.55201 104.58686 117.05197 104.60894
19       114.30944 103.97680         10.68939   0.230000 117.05197 104.60894 111.55201 104.58686 111.56699 103.34466 117.06695 103.36673
19       114.32458 102.73407         10.69830   0.230000 117.06695 103.36673 111.56699 103.34466 111.58230 102.10141 117.08225 102.12349
19       114.34005 101.49031         10.70722   0.230000 117.08225 102.12349 111.58230 102.10141 111.59792 100.85713 117.09787 100.87921
19       114.35582 100.24551         10.71615   0.230000 117.09787 100.87921 111.59792 100.85713 111.61385  99.61182 117.11381  99.63389
19       114.37192  98.99968         10.72508   0.230000 117.11381  99.63389 111.61385  99.61182 111.63010  98.36546 117.13006  98.38754
19       114.38832  97.75280         10.73402   0.230000 117.13006  98.38754 111.63010  98.36546 111.64666  97.11806 117.14662  97.14014
19       114.40504  96.50488         10.74297   0.230000 117.14662  97.14014 111.64666  97.11806 111.66353  95.86963 117.16349  95.89170
19       114.42206  95.25593         10.75193   0.230000 117.16349  95.89170 111.66353  95.86963 111.68070  94.62015 117.18066  94.64223
19       114.43938  94.00593         10.76089   0.230000 117.18066  94.64223 111.68070  94.62015 111.69818  93.36963 117.19813  93.39170
19       114.45701  92.75488         10.76986   0.230000 117.19813  93.39170 111.69818  93.36963 111.71595  92.11806 117.21591  92.14014
19       114.47493  91.50280         10.77884   0.230000 117.21591  92.14014 111.71595  92.11806 111.73402  90.86546 117.23398  90.88753
19       114.49315  90.24967         10.78783   0.230000 117.23398  90.88753 111.73402  90.86546 111.75238  89.61180 117.25234  89.63388
19       114.51165  88.99549         10.79682   0.230000 117.25234  89.63388 111.75238  89.61180 111.77104  88.35710 117.27099  88.37918
19       114.53045  87.74027         10.80582   0.230000 117.27099  88.37918 111.77104  88.35710 111.78998  87.10136 117.28993  87.12344
19       114.54954  86.48400         10.81483   0.230000 117.28993  87.12344 111.78998  87.10136 111.80920  85.84457 117.30916  85.86665
19       114.56890  85.22669         10.82385   0.230000 117.30916  85.86665 111.80920  85.84457 111.82871  84.58673 117.32867  84.60880
19       114.58855  83.96832         10.83287   0.230000 117.32867  84.60880 111.82871  84.58673 111.84850  83.32784 117.34845  83.34991
19       114.60847  82.70891         10.84190   0.230000 117.34845  83.34991 111.84850  83.32784 111.86856  82.06790 117.36852  82.08997
19       114.62867  81.44844         10.85094   0.230000 117.36852  82.08997 111.86856  82.06790 111.88889  80.80691 117.38885  80.82898
19       114.64914  80.18692         10.85999   0.230000 117.38885  80.82898 111.88889  80.80691 111.90950  79.54486 117.40945  79.56694
19       114.66988  78.92435         10.86904   0.230000 117.40945  79.56694 111.90950  79.54486 111.93037  78.28177 117.43032  78.30384
19       114.69088  77.66073         10.87810   0.230000 117.43032  78.30384 111.93037  78.28177 111.95150  77.01762 117.45146  77.03970
19       114.71215  76.39605         10.88717   0.230000 117.45146  77.03970 111.95150  77.01762 111.97290  75.75241 117.47285  75.77449
19       114.73367  75.13032         10.89625   0.230000 117.47285  75.77449 111.97290  75.75241 111.99455  74.48615 117.49450  74.50823
19       114.75545  73.86354         10.90533   0.230000 117.49450  74.50823 111.99455  74.48615 112.01646  73.21884 117.51641  73.24092
19       114.77748  72.59569         10.91442   0.230000 117.51641  73.24092 112.01646  73.21884 112.03861  71.95047 117.53857  71.97254
19       114.79977  71.32679         10.92352   0.230000 117.53857  71.97254 112.03861  71.95047 112.06102  70.68103 117.56097  70.70311
19       114.82229  70.05683         10.93263   0.230000 117.56097  70.70311 112.06102  70.68103 112.08367  69.41054 117.58362  69.43262
19       114.84506  68.78581         10.94174   0.230000 117.58362  69.43262 112.08367  69.41054 112.10656  68.13900 117.60652  68.16107
19       114.86808  67.51373         10.95086   0.230000 117.60652  68.16107 112.10656  68.13900 112.12969  66.86638 117.62965  66.88846
19       114.89132  66.24059         10.95999   0.230000 117.62965  66.88846 112.12969  66.86638 112.15306  65.59271 117.65301  65.61479
19       114.91481  64.96639         10.96913   0.230000 117.65301  65.61479 112.15306  65.59271 112.17665  64.31798 117.67661  64.34006
19       114.93852  63.69112         10.97828   0.230000 117.67661  64.34006 112.17665  64.31798 112.20048  63.04218 117.70044  63.06426
19       114.96246  62.41479         10.98743   0.230000 117.70044  63.06426 112.20048  63.04218 112.22453  61.76532 117.72449  61.78740
19       114.98662  61.13740         10.99659   0.230000 117.72449  61.78740 112.22453  61.76532 112.24881  60.48739 117.74876  60.50947
19       115.01101  59.85894         11.00576   0.230000 117.74876  60.50947 112.24881  60.48739 112.27330  59.20840 117.77326  59.23048
19       115.03561  58.57941         11.01493   0.230000 117.77326  59.23048 112.27330  59.20840 112.29801  57.92834 117.79796  57.95042
19       115.06042  57.29881         11.02411   0.230000 117.79796  57.95042 112.29801  57.92834 112.32293  56.64721 117.82288  56.66929
19       115.08545  56.01715         11.03331   0.230000 117.82288  56.66929 112.32293  56.64721 112.34806  55.36502 117.84801  55.38709
19       115.11068  54.73442         11.04250   0.230000 117.84801  55.38709 112.34806  55.36502 112.37339  54.08175 117.87335  54.10383
19       115.13612  53.45062         11.05171   0.230000 117.87335  54.10383 112.37339  54.08175 112.39893  52.79741 117.89889  52.81949
19       115.16176  52.16575         11.06092   0.230000 117.89889  52.81949 112.39893  52.79741 112.42467  51.51201 117.92462  51.53408
19       115.18759  50.87980         11.07014   0.230000 117.92462  51.53408 112.42467  51.51201 112.45060  50.22553 117.95055  50.24760
19       115.21362  49.59279         11.07937   0.230000 117.95055  50.24760 112.45060  50.22553 112.47672  48.93797 117.97668  48.96005
19       115.23983  48.30470         11.08861   0.230000 117.97668  48.96005 112.47672  48.93797 112.50303  47.64934 118.00299  47.67142
19       115.26624  47.01553         11.09785   0.230000 118.00299  47.67142 112.50303  47.64934 112.52953  46.35964 118.02948  46.38172
19       115.29283  45.72529         11.10711   0.230000 118.02948  46.38172 112.52953  46.35964 112.55621  45.06886 118.05616  45.09094
19       115.31959  44.43398         11.11637   0.230000 118.05616  45.09094 112.55621  45.06886 112.58306  43.77701 118.08302  43.79909
19       115.34654  43.14158         11.12563   0.230000 118.08302  43.79909 112.58306  43.77701 112.61009  42.48408 118.11005  42.50616
19       115.37365  41.84811         11.13491   0.230000 118.11005  42.50616 112.61009  42.48408 112.63729  41.19007 118.13725  41.21214
19       115.40094  40.55356         11.14419   0.230000 118.13725  41.21214 112.63729  41.19007 112.66466  39.89498 118.16462  39.91705
19       115.42839  39.25793         11.15348   0.230000 118.16462  39.91705 112.66466  39.89498 112.69219  38.59880 118.19215  38.62088
19       115.45600  37.96122         11.16278   0.230000 118.19215  38.62088 112.69219  38.59880 112.71988  37.30155 118.21984  37.32363
19       115.48377  36.66343         11.17209   0.230000 118.21984  37.32363 112.71988  37.30155 112.74773  36.00322 118.24768  36.02530
19       115.51169  35.36455         11.18140   0.230000 118.24768  36.02530 112.74773  36.00322 112.77573  34.70380 118.27568  34.72588
19       115.53977  34.06459         11.19072   0.230000 118.27568  34.72588 112.77573  34.70380 112.80388  33.40330 118.30383  33.42538
19       115.56799  32.76355         11.20005   0.230000 118.30383  33.42538 112.80388  33.40330 112.83217  32.10171 118.33213  32.12379
19       115.59635  31.46142         11.20939   0.230000 118.33213  32.12379 112.83217  32.10171 112.86061  30.79904 118.36056  30.82112
19       115.62486  30.15820         11.21873   0.230000 118.36056  30.82112 112.86061  30.79904 112.88918  29.49528 118.38913  29.51736
19       115.65350  28.85390         11.22809   0.230000 118.38913  29.51736 112.88918  29.49528 112.91789  28.19044 118.41784  28.21252
19       115.68227  27.54851         11.23745   0.230000 118.41784  28.21252 112.91789  28.19044 112.94672  26.88450 118.44668  26.90658
19       115.71117  26.24203         11.24682   0.230000 118.44668  26.90658 112.94672  26.88450 112.97569  25.57748 118.47564  25.59956
19       115.74020  24.93446         11.25619   0.230000 118.47564  25.59956 112.97569  25.57748 113.00477  24.26937 118.50473  24.29144
19       115.76934  23.62580         11.26558   0.230000 118.50473  24.29144 113.00477  24.26937 113.03398  22.96016 118.53393  22.98224
19       115.79861  22.31605         11.27497   0.230000 118.53393  22.98224 113.03398  22.96016 113.06330  21.64986 118.56325  21.67194
19       115.82798  21.00521         11.28437   0.230000 118.56325  21.67194 113.06330  21.64986 113.09273  20.33847 118.59269  20.36055
19       115.85747  19.69327         11.29378   0.230000 118.59269  20.36055 113.09273  20.33847 113.12227  19.02599 118.62222  19.04807
19       115.88706  18.38024         11.30319   0.230000 118.62222  19.04807 113.12227  19.02599 113.15191  17.71241 118.65186  17.73449
19       115.91675  17.06611         11.31261   0.230000 118.65186  17.73449 113.15191  17.71241 113.18165  16.39773 118.68161  16.41981
19       115.94654  15.75089         11.32205   0.230000 118.68161  16.41981 113.18165  16.39773 113.21149  15.08196 118.71144  15.10404
19       115.97642  14.43457         11.33148   0.230000 118.71144  15.10404 113.21149  15.08196 113.24141  13.76509 118.74137  13.78717
19       116.00639  13.11715         11.34093   0.230000 118.74137  13.78717 113.24141  13.76509 113.27143  12.44712 118.77138  12.46920
19       116.03645  11.79863         11.35039   0.230000 118.77138  12.46920 113.27143  12.44712 113.30152  11.12806 118.80148  11.15014
19       116.06658  10.47901         11.35985   0.230000 118.80148  11.15014 113.30152  11.12806 113.33170   9.80789 118.83166   9.82997
19       116.09680   9.15829         11.36932   0.230000 118.83166   9.82997 113.33170   9.80789 113.36195   8.48662 118.86191   8.50870
19       116.12709   7.83647         11.37880   0.230000 118.86191   8.50870 113.36195   8.48662 113.39228   7.16425 118.89223   7.18633
19       116.15745   6.51355         11.38828   0.230000 118.89223   7.18633 113.39228   7.16425 113.42267   5.84077 118.92262   5.86285
19       116.18787   5.18952         11.39778   0.230000 118.92262   5.86285 113.42267   5.84077 113.45312   4.51620 118.95308   4.53827
19       116.21835   3.86439         11.40728   0.230000 118.95308   4.53827 113.45312   4.51620 113.48363   3.19051 118.98359   3.21259
19       116.24889   2.53816         11.41679   0.230000 118.98359   3.21259 113.48363   3.19051 113.51420   1.86372 119.01416   1.88580
19       116.27948   1.21081         11.42631   0.230000 119.01416   1.88580 113.51420   1.86372 113.54482   0.53583 119.04477   0.55791
18       106.37235 127.83781         11.09785   0.310000 109.12161 128.46396 103.62169 128.43420 103.62316 127.21165 109.12308 127.24141
18       106.37395 126.61475         11.10711   0.310000 109.12308 127.24141 103.62316 127.21165 103.62489 125.98808 109.12481 126.01784
18       106.37582 125.39067         11.11637   0.310000 109.12481 126.01784 103.62489 125.98808 103.62689 124.76349 109.12681 124.79325
18       106.37795 124.16557         11.12563   0.310000 109.12681 124.79325 103.62689 124.76349 103.62915 123.53788 109.12907 123.56764
18       106.38035 122.93944         11.13491   0.310000 109.12907 123.56764 103.62915 123.53788 103.63169 122.31125 109.13161 122.34101
18       106.38301 121.71230         11.14419   0.310000 109.13161 122.34101 103.63169 122.31125 103.63449 121.08359 109.13441 121.11335
18       106.38595 120.48413         11.15348   0.310000 109.13441 121.11335 103.63449 121.08359 103.63755 119.85492 109.13747 119.88467
18       106.38915 119.25494         11.16278   0.310000 109.13747 119.88467 103.63755 119.85492 103.64089 118.62521 109.14081 118.65497
18       106.39261 118.02473         11.17209   0.310000 109.14081 118.65497 103.64089 118.62521 103.64449 117.39449 109.14441 117.42424
18       106.39635 116.79349         11.18140   0.310000 109.14441 117.42424 103.64449 117.39449 103.64836 116.16273 109.14828 116.19249
18       106.40035 115.56122         11.19072   0.310000 109.14828 116.19249 103.64836 116.16273 103.65249 114.92995 109.15241 114.95971
18       106.40462 114.32793         11.20005   0.310000 109.15241 114.95971 103.65249 114.92995 103.65690 113.69614 109.15681 113.72590
18       106.40916 113.09360         11.20939   0.310000 109.15681 113.72590 103.65690 113.69614 103.66157 112.46131 109.16148 112.49106
18       106.41396 111.85825         11.21873   0.310000 109.16148 112.49106 103.66157 112.46131 103.66650 111.22544 109.16642 111.25520
18       106.41903 110.62187         11.22809   0.310000 109.16642 111.25520 103.66650 111.22544 103.67171 109.98854 109.17163 110.01830
18       106.42437 109.38446         11.23745   0.310000 109.17163 110.01830 103.67171 109.98854 103.67718 108.75061 109.17710 108.78037
18       106.42997 108.14601         11.24682   0.310000 109.17710 108.78037 103.67718 108.75061 103.68292 107.51165 109.18284 107.54141
18       106.43585 106.90654         11.25619   0.310000 109.18284 107.54141 103.68292 107.51165 103.68892 106.27166 109.18884 106.30142
18       106.44198 105.66603         11.26558   0.310000 109.18884 106.30142 103.68892 106.27166 103.69519 105.03063 109.19511 105.06039
18       106.44839 104.42448         11.27497   0.310000 109.19511 105.06039 103.69519 105.03063 103.70173 103.78857 109.20165 103.81833
18       106.45506 103.18190         11.28437   0.310000 109.20165 103.81833 103.70173 103.78857 103.70854 102.54548 109.20846 102.57523
18       106.46200 101.93829         11.29378   0.310000 109.20846 102.57523 103.70854 102.54548 103.71561 101.30134 109.21553 101.33110
18       106.46921 100.69364         11.30319   0.310000 109.21553 101.33110 103.71561 101.30134 103.72295 100.05617 109.22287 100.08593
18       106.47669  99.44795         11.31261   0.310000 109.22287 100.08593 103.72295 100.05617 103.73056  98.80996 109.23048  98.83972
18       106.48443  98.20122         11.32205   0.310000 109.23048  98.83972 103.73056  98.80996 103.73844  97.56272 109.23836  97.59247
18       106.49243  96.95345         11.33148   0.310000 109.23836  97.59247 103.73844  97.56272 103.74658  96.31443 109.24650  96.34419
18       106.50071  95.70464         11.34093   0.310000 109.24650  96.34419 103.74658  96.31443 103.75499  95.06510 109.25491  95.09486
18       106.50925  94.45480         11.35039   0.310000 109.25491  95.09486 103.75499  95.06510 103.76366  93.81473 109.26358  93.84449
18       106.51806  93.20390         11.35985   0.310000 109.26358  93.84449 103.76366  93.81473 103.77260  92.56332 109.27252  92.59308
18       106.52713  91.95197         11.36932   0.310000 109.27252  92.59308 103.77260  92.56332 103.78181  91.31086 109.28173  91.34062
18       106.53648  90.69899         11.37880   0.310000 109.28173  91.34062 103.78181  91.31086 103.79129  90.05737 109.29121  90.08712
18       106.54609  89.44497         11.38828   0.310000 109.29121  90.08712 103.79129  90.05737 103.80103  88.80282 109.30095  88.83258
18       106.55596  88.18991         11.39778   0.310000 109.30095  88.83258 103.80103  88.80282 103.81104  87.54723 109.31096  87.57699
18       106.56610  86.93379         11.40728   0.310000 109.31096  87.57699 103.81104  87.54723 103.82131  86.29059 109.32123  86.32035
18       106.57651  85.67663         11.41679   0.310000 109.32123  86.32035 103.82131  86.29059 103.83185  85.03291 109.33177  85.06267
18       106.58719  84.41842         11.42631   0.310000 109.33177  85.06267 103.83185  85.03291 103.84266  83.77418 109.34258  83.80393
18       106.59813  83.15916         11.43583   0.310000 109.34258  83.80393 103.84266  83.77418 103.85374  82.51439 109.35366  82.54415
18       106.60933  81.89886         11.44537   0.310000 109.35366  82.54415 103.85374  82.51439 103.86508  81.25356 109.36500  81.28332
18       106.62081  80.63750         11.45491   0.310000 109.36500  81.28332 103.86508  81.25356 103.87668  79.99168 109.37660  80.02144
18       106.63255  79.37509         11.46446   0.310000 109.37660  80.02144 103.87668  79.99168 103.88856  78.72874 109.38848  78.75850
18       106.64456  78.11163         11.47402   0.310000 109.38848  78.75850 103.88856  78.72874 103.90070  77.46475 109.40062  77.49451
18       106.65683  76.84711         11.48358   0.310000 109.40062  77.49451 103.90070  77.46475 103.91310  76.19971 109.41302  76.22947
18       106.66937  75.58154         11.49316   0.310000 109.41302  76.22947 103.91310  76.19971 103.92577  74.93361 109.42569  74.96337
18       106.68217  74.31492         11.50274   0.310000 109.42569  74.96337 103.92577  74.93361 103.93871  73.66646 109.43863  73.69622
18       106.69524  73.04724         11.51233   0.310000 109.43863  73.69622 103.93871  73.66646 103.95191  72.39825 109.45183  72.42801
18       106.70858  71.77850         11.52193   0.310000 109.45183  72.42801 103.95191  72.39825 103.96538  71.12899 109.46530  71.15874
18       106.72218  70.50870         11.53153   0.310000 109.46530  71.15874 103.96538  71.12899 103.97912  69.85866 109.47904  69.88842
18       106.73605  69.23785         11.54114   0.310000 109.47904  69.88842 103.97912  69.85866 103.99312  68.58728 109.49304  68.61704
18       106.75018  67.96594         11.55077   0.310000 109.49304  68.61704 103.99312  68.58728 104.00738  67.31483 109.50730  67.34459
18       106.76458  66.69296         11.56040   0.310000 109.50730  67.34459 104.00738  67.31483 104.02192  66.04133 109.52184  66.07109
18       106.77924  65.41893         11.57003   0.310000 109.52184  66.07109 104.02192  66.04133 104.03671  64.76676 109.53663  64.79652
18       106.79417  64.14383         11.57968   0.310000 109.53663  64.79652 104.03671  64.76676 104.05177  63.49114 109.55169  63.52089
18       106.80937  62.86767         11.58933   0.310000 109.55169  63.52089 104.05177  63.49114 104.06710  62.21444 109.56702  62.24420
18       106.82483  61.59044         11.59899   0.310000 109.56702  62.24420 104.06710  62.21444 104.08269  60.93669 109.58261  60.96645
18       106.84055  60.31216         11.60866   0.310000 109.58261  60.96645 104.08269  60.93669 104.09855  59.65787 109.59847  59.68762
18       106.85654  59.03280         11.61834   0.310000 109.59847  59.68762 104.09855  59.65787 104.11467  58.37798 109.61459  58.40774
18       106.87280  57.75238         11.62803   0.310000 109.61459  58.40774 104.11467  58.37798 104.13106  57.09702 109.63098  57.12678
18       106.88931  56.47089         11.63772   0.310000 109.63098  57.12678 104.13106  57.09702 104.14771  55.81500 109.64763  55.84476
18       106.90610  55.18833         11.64742   0.310000 109.64763  55.84476 104.14771  55.81500 104.16463  54.53191 109.66455  54.56167
18       106.92315  53.90471         11.65713   0.310000 109.66455  54.56167 104.16463  54.53191 104.18181  53.24775 109.68173  53.27751
18       106.94046  52.62001         11.66685   0.310000 109.68173  53.27751 104.18181  53.24775 104.19925  51.96252 109.69917  51.99228
18       106.95804  51.33424         11.67658   0.310000 109.69917  51.99228 104.19925  51.96252 104.21696  50.67621 109.71688  50.70597
18       106.97588  50.04741         11.68631   0.310000 109.71688  50.70597 104.21696  50.67621 104.23493  49.38884 109.73485  49.41860
18       106.99398  48.75949         11.69606   0.310000 109.73485  49.41860 104.23493  49.38884 104.25317  48.10039 109.75309  48.13015
18       107.01235  47.47051         11.70581   0.310000 109.75309  48.13015 104.25317  48.10039 104.27167  46.81087 109.77159  46.84063
18       107.03098  46.18045         11.71557   0.310000 109.77159  46.84063 104.27167  46.81087 104.29044  45.52027 109.79036  45.55003
18       107.04988  44.88931         11.72533   0.310000 109.79036  45.55003 104.29044  45.52027 104.30947  44.22860 109.80938  44.25835
18       107.06904  43.59710         11.73511   0.310000 109.80938  44.25835 104.30947  44.22860 104.32876  42.93584 109.82868  42.96560
18       107.08846  42.30381         11.74489   0.310000 109.82868  42.96560 104.32876  42.93584 104.34831  41.64202 109.84823  41.67177
18       107.10815  41.00944         11.75468   0.310000 109.84823  41.67177 104.34831  41.64202 104.36813  40.34711 109.86805  40.37687
18       107.12810  39.71399         11.76448   0.310000 109.86805  40.37687 104.36813  40.34711 104.38821  39.05112 109.88813  39.08088
18       107.14831  38.41747         11.77429   0.310000 109.88813  39.08088 104.38821  39.05112 104.40855  37.75406 109.90847  37.78381
18       107.16879  37.11986         11.78411   0.310000 109.90847  37.78381 104.40855  37.75406 104.42916  36.45591 109.92908  36.48567
18       107.18953  35.82117         11.79393   0.310000 109.92908  36.48567 104.42916  36.45591 104.45003  35.15668 109.94995  35.18643
18       107.21053  34.52140         11.80376   0.310000 109.94995  35.18643 104.45003  35.15668 104.47116  33.85636 109.97108  33.88612
18       107.23179  33.22054         11.81360   0.310000 109.97108  33.88612 104.47116  33.85636 104.49256  32.55497 109.99248  32.58472
18       107.25331  31.91860         11.82345   0.310000 109.99248  32.58472 104.49256  32.55497 104.51421  31.25248 110.01413  31.28224
18       107.27510  30.61558         11.83331   0.310000 110.01413  31.28224 104.51421  31.25248 104.53613  29.94891 110.03605  29.97867
18       107.29715  29.31147         11.84318   0.310000 110.03605  29.97867 104.53613  29.94891 104.55831  28.64426 110.05823  28.67402
18       107.31946  28.00627         11.85305   0.310000 110.05823  28.67402 104.55831  28.64426 104.58075  27.33852 110.08067  27.36827
18       107.34203  26.69998         11.86293   0.310000 110.08067  27.36827 104.58075  27.33852 104.60346  26.03168 110.10338  26.06144
18       107.36487  25.39260         11.87282   0.310000 110.10338  26.06144 104.60346  26.03168 104.62642  24.72376 110.12634  24.75352
18       107.38796  24.08414         11.88272   0.310000 110.12634  24.75352 104.62642  24.72376 104.64965  23.41475 110.14957  23.44451
18       107.41132  22.77458         11.89262   0.310000 110.14957  23.44451 104.64965  23.41475 104.67313  22.10465 110.17305  22.13441
18       107.43494  21.46393         11.90254   0.310000 110.17305  22.13441 104.67313  22.10465 104.69688  20.79345 110.19680  20.82321
18       107.45881  20.15219         11.91246   0.310000 110.19680  20.82321 104.69688  20.79345 104.72089  19.48117 110.22081  19.51092
18       107.48295  18.83935         11.92239   0.310000 110.22081  19.51092 104.72089  19.48117 104.74516  18.16778 110.24508  18.19754
18       107.50735  17.52542         11.93233   0.310000 110.24508  18.19754 104.74516  18.16778 104.76968  16.85331 110.26960  16.88306
18       107.53201  16.21040         11.94228   0.310000 110.26960  16.88306 104.76968  16.85331 104.79447  15.53773 110.29439  15.56749
18       107.55693  14.89428         11.95224   0.310000 110.29439  15.56749 104.79447  15.53773 104.81952  14.22106 110.31944  14.25082
18       107.58211  13.57706         11.96220   0.310000 110.31944  14.25082 104.81952  14.22106 104.84483  12.90330 110.34475  12.93305
18       107.60754  12.25874         11.97217   0.310000 110.34475  12.93305 104.84483  12.90330 104.87040  11.58443 110.37032  11.61419
18       107.63324  10.93933         11.98215   0.310000 110.37032  11.61419 104.87040  11.58443 104.89622  10.26447 110.39614  10.29422
18       107.65920   9.61881         11.99214   0.310000 110.39614  10.29422 104.89622  10.26447 104.92231   8.94340 110.42223   8.97316
18       107.68541   8.29720         12.00214   0.310000 110.42223   8.97316 104.92231   8.94340 104.94866   7.62123 110.44857   7.65099
18       107.71189   6.97448         12.01215   0.310000 110.44857   7.65099 104.94866   7.62123 104.97526   6.29796 110.47518   6.32772
18       107.73862   5.65066         12.02216   0.310000 110.47518   6.32772 104.97526   6.29796 105.00212   4.97359 110.50204   5.00335
18       107.76561   4.32573         12.03218   0.310000 110.50204   5.00335 105.00212   4.97359 105.02924   3.64811 110.52916   3.67787
18       107.79286   2.99970         12.04222   0.310000 110.52916   3.67787 105.02924   3.64811 105.05662   2.32153 110.55654   2.35129
18       107.82037   1.67257         12.05225   0.310000 110.55654   2.35129 105.05662   2.32153 105.08425   0.99384 110.58417   1.02360
17        97.53765 127.36384         11.74489   0.440000 100.28866 127.99643  94.78882 127.95419  94.78669 126.73124 100.28653 126.77348
17        97.53562 126.14038         11.75468   0.440000 100.28653 126.77348  94.78669 126.73124  94.78477 125.50728 100.28461 125.54952
17        97.53381 124.91590         11.76448   0.440000 100.28461 125.54952  94.78477 125.50728  94.78307 124.28229 100.28290 124.32453
17        97.53221 123.69041         11.77429   0.440000 100.28290 124.32453  94.78307 124.28229  94.78157 123.05628 100.28141 123.09852
17        97.53083 122.46389         11.78411   0.440000 100.28141 123.09852  94.78157 123.05628  94.78029 121.82925 100.28013 121.87149
17        97.52965 121.23635         11.79393   0.440000 100.28013 121.87149  94.78029 121.82925  94.77922 120.60120 100.27906 120.64344
17        97.52869 120.00778         11.80376   0.440000 100.27906 120.64344  94.77922 120.60120  94.77837 119.37212 100.27820 119.41436
17        97.52794 118.77819         11.81360   0.440000 100.27820 119.41436  94.77837 119.37212  94.77772 118.14202 100.27756 118.18426
17        97.52740 117.54758         11.82345   0.440000 100.27756 118.18426  94.77772 118.14202  94.77729 116.91089 100.27712 116.95313
17        97.52707 116.31594         11.83331   0.440000 100.27712 116.95313  94.77729 116.91089  94.77706 115.67874 100.27690 115.72098
17        97.52695 115.08327         11.84318   0.440000 100.27690 115.72098  94.77706 115.67874  94.77705 114.44556 100.27689 114.48780
17        97.52704 113.84957         11.85305   0.440000 100.27689 114.48780  94.77705 114.44556  94.77725 113.21135 100.27709 113.25359
17        97.52735 112.61485         11.86293   0.440000 100.27709 113.25359  94.77725 113.21135  94.77766 111.97611 100.27750 112.01835
17        97.52786 111.37910         11.87282   0.440000 100.27750 112.01835  94.77766 111.97611  94.77828 110.73985 100.27812 110.78208
17        97.52859 110.14232         11.88272   0.440000 100.27812 110.78208  94.77828 110.73985  94.77911 109.50255 100.27895 109.54479
17        97.52953 108.90450         11.89262   0.440000 100.27895 109.54479  94.77911 109.50255  94.78015 108.26422 100.27999 108.30646
17        97.53067 107.66566         11.90254   0.440000 100.27999 108.30646  94.78015 108.26422  94.78140 107.02486 100.28124 107.06709
17        97.53203 106.42578         11.91246   0.440000 100.28124 107.06709  94.78140 107.02486  94.78287 105.78446 100.28270 105.82670
17        97.53359 105.18487         11.92239   0.440000 100.28270 105.82670  94.78287 105.78446  94.78454 104.54303 100.28437 104.58527
17        97.53537 103.94292         11.93233   0.440000 100.28437 104.58527  94.78454 104.54303  94.78642 103.30057 100.28626 103.34280
17        97.53736 102.69994         11.94228   0.440000 100.28626 103.34280  94.78642 103.30057  94.78851 102.05707 100.28835 102.09930
17        97.53955 101.45592         11.95224   0.440000 100.28835 102.09930  94.78851 102.05707  94.79081 100.81253 100.29064 100.85477
17        97.54195 100.21086         11.96220   0.440000 100.29064 100.85477  94.79081 100.81253  94.79331  99.56696 100.29315  99.60919
17        97.54457  98.96477         11.97217   0.440000 100.29315  99.60919  94.79331  99.56696  94.79603  98.32034 100.29587  98.36258
17        97.54739  97.71764         11.98215   0.440000 100.29587  98.36258  94.79603  98.32034  94.79896  97.07269 100.29879  97.11493
17        97.55042  96.46946         11.99214   0.440000 100.29879  97.11493  94.79896  97.07269  94.80209  95.82400 100.30193  95.86624
17        97.55365  95.22025         12.00214   0.440000 100.30193  95.86624  94.80209  95.82400  94.80543  94.57427 100.30527  94.61650
17        97.55710  93.97000         12.01215   0.440000 100.30527  94.61650  94.80543  94.57427  94.80898  93.32349 100.30882  93.36573
17        97.56075  92.71870         12.02216   0.440000 100.30882  93.36573  94.80898  93.32349  94.81274  92.07167 100.31258  92.11391
17        97.56461  91.46636         12.03218   0.440000 100.31258  92.11391  94.81274  92.07167  94.81670  90.81881 100.31654  90.86105
17        97.56868  90.21298         12.04222   0.440000 100.31654  90.86105  94.81670  90.81881  94.82087  89.56491 100.32071  89.60714
17        97.57296  88.95855         12.05225   0.440000 100.32071  89.60714  94.82087  89.56491  94.82525  88.30996 100.32509  88.35219
17        97.57744  87.70308         12.06230   0.440000 100.32509  88.35219  94.82525  88.30996  94.82984  87.05396 100.32968  87.09619
17        97.58213  86.44655         12.07236   0.440000 100.32968  87.09619  94.82984  87.05396  94.83463  85.79691 100.33447  85.83915
17        97.58702  85.18899         12.08242   0.440000 100.33447  85.83915  94.83463  85.79691  94.83963  84.53882 100.33947  84.58106
17        97.59213  83.93037         12.09250   0.440000 100.33947  84.58106  94.83963  84.53882  94.84483  83.27968 100.34467  83.32192
17        97.59743  82.67070         12.10258   0.440000 100.34467  83.32192  94.84483  83.27968  94.85025  82.01949 100.35008  82.06173
17        97.60295  81.40999         12.11267   0.440000 100.35008  82.06173  94.85025  82.01949  94.85586  80.75825 100.35570  80.80048
17        97.60867  80.14822         12.12277   0.440000 100.35570  80.80048  94.85586  80.75825  94.86168  79.49595 100.36152  79.53819
17        97.61459  78.88540         12.13287   0.440000 100.36152  79.53819  94.86168  79.49595  94.86771  78.23261 100.36755  78.27484
17        97.62072  77.62153         12.14299   0.440000 100.36755  78.27484  94.86771  78.23261  94.87394  76.96821 100.37378  77.01045
17        97.62705  76.35660         12.15311   0.440000 100.37378  77.01045  94.87394  76.96821  94.88038  75.70276 100.38022  75.74499
17        97.63359  75.09062         12.16324   0.440000 100.38022  75.74499  94.88038  75.70276  94.88702  74.43625 100.38686  74.47849
17        97.64034  73.82359         12.17338   0.440000 100.38686  74.47849  94.88702  74.43625  94.89386  73.16869 100.39370  73.21092
17        97.64728  72.55549         12.18353   0.440000 100.39370  73.21092  94.89386  73.16869  94.90091  71.90006 100.40075  71.94230
17        97.65443  71.28634         12.19369   0.440000 100.40075  71.94230  94.90091  71.90006  94.90817  70.63039 100.40800  70.67262
17        97.66179  70.01614         12.20385   0.440000 100.40800  70.67262  94.90817  70.63039  94.91562  69.35965 100.41546  69.40189
17        97.66935  68.74487         12.21403   0.440000 100.41546  69.40189  94.91562  69.35965  94.92328  68.08785 100.42312  68.13009
17        97.67711  67.47254         12.22421   0.440000 100.42312  68.13009  94.92328  68.08785  94.93114  66.81500 100.43098  66.85723
17        97.68507  66.19916         12.23440   0.440000 100.43098  66.85723  94.93114  66.81500  94.93921  65.54108 100.43905  65.58332
17        97.69324  64.92471         12.24460   0.440000 100.43905  65.58332  94.93921  65.54108  94.94747  64.26610 100.44731  64.30834
17        97.70160  63.64920         12.25481   0.440000 100.44731  64.30834  94.94747  64.26610  94.95594  62.99006 100.45578  63.03230
17        97.71017  62.37262         12.26503   0.440000 100.45578  63.03230  94.95594  62.99006  94.96461  61.71295 100.46445  61.75519
17        97.71894  61.09499         12.27525   0.440000 100.46445  61.75519  94.96461  61.71295  94.97349  60.43478 100.47332  60.47702
17        97.72792  59.81628         12.28548   0.440000 100.47332  60.47702  94.97349  60.43478  94.98256  59.15555 100.48240  59.19778
17        97.73709  58.53651         12.29573   0.440000 100.48240  59.19778  94.98256  59.15555  94.99183  57.87524 100.49167  57.91748
17        97.74647  57.25568         12.30598   0.440000 100.49167  57.91748  94.99183  57.87524  95.00131  56.59387 100.50115  56.63611
17        97.75604  55.97377         12.31624   0.440000 100.50115  56.63611  95.00131  56.59387  95.01098  55.31143 100.51082  55.35367
17        97.76582  54.69080         12.32650   0.440000 100.51082  55.35367  95.01098  55.31143  95.02086  54.02793 100.52070  54.07016
17        97.77579  53.40676         12.33678   0.440000 100.52070  54.07016  95.02086  54.02793  95.03093  52.74335 100.53077  52.78558
17        97.78596  52.12164         12.34707   0.440000 100.53077  52.78558  95.03093  52.74335  95.04121  51.45770 100.54104  51.49994
17        97.79634  50.83546         12.35736   0.440000 100.54104  51.49994  95.04121  51.45770  95.05168  50.17098 100.55152  50.21322
17        97.80691  49.54820         12.36766   0.440000 100.55152  50.21322  95.05168  50.17098  95.06235  48.88319 100.56219  48.92542
17        97.81768  48.25987         12.37797   0.440000 100.56219  48.92542  95.06235  48.88319  95.07322  47.59432 100.57306  47.63656
17        97.82865  46.97047         12.38829   0.440000 100.57306  47.63656  95.07322  47.59432  95.08429  46.30438 100.58413  46.34661
17        97.83982  45.67999         12.39862   0.440000 100.58413  46.34661  95.08429  46.30438  95.09556  45.01336 100.59539  45.05560
17        97.85118  44.38843         12.40896   0.440000 100.59539  45.05560  95.09556  45.01336  95.10702  43.72127 100.60686  43.76351
17        97.86275  43.09580         12.41930   0.440000 100.60686  43.76351  95.10702  43.72127  95.11868  42.42810 100.61852  42.47033
17        97.87451  41.80209         12.42965   0.440000 100.61852  42.47033  95.11868  42.42810  95.13054  41.13385 100.63038  41.17609
17        97.88646  40.50730         12.44002   0.440000 100.63038  41.17609  95.13054  41.13385  95.14259  39.83852 100.64243  39.88076
17        97.89862  39.21144         12.45039   0.440000 100.64243  39.88076  95.14259  39.83852  95.15485  38.54212 100.65468  38.58435
17        97.91096  37.91449         12.46077   0.440000 100.65468  38.58435  95.15485  38.54212  95.16729  37.24463 100.66713  37.28686
17        97.92351  36.61646         12.47116   0.440000 100.66713  37.28686  95.16729  37.24463  95.17993  35.94606 100.67977  35.98829
17        97.93625  35.31735         12.48155   0.440000 100.67977  35.98829  95.17993  35.94606  95.19277  34.64641 100.69261  34.68864
17        97.94918  34.01716         12.49196   0.440000 100.69261  34.68864  95.19277  34.64641  95.20580  33.34567 100.70564  33.38791
17        97.96231  32.71588         12.50237   0.440000 100.70564  33.38791  95.20580  33.34567  95.21903  32.04385 100.71887  32.08609
17        97.97564  31.41352         12.51280   0.440000 100.71887  32.08609  95.21903  32.04385  95.23245  30.74095 100.73229  30.78318
17        97.98915  30.11007         12.52323   0.440000 100.73229  30.78318  95.23245  30.74095  95.24606  29.43695 100.74590  29.47919
17        98.00286  28.80553         12.53367   0.440000 100.74590  29.47919  95.24606  29.43695  95.25987  28.13187 100.75971  28.17411
17        98.01677  27.49991         12.54412   0.440000 100.75971  28.17411  95.25987  28.13187  95.27387  26.82571 100.77371  26.86794
17        98.03087  26.19320         12.55457   0.440000 100.77371  26.86794  95.27387  26.82571  95.28807  25.51845 100.78790  25.56069
17        98.04516  24.88540         12.56504   0.440000 100.78790  25.56069  95.28807  25.51845  95.30245  24.21011 100.80229  24.25234
17        98.05964  23.57651         12.57552   0.440000 100.80229  24.25234  95.30245  24.21011  95.31703  22.90067 100.81687  22.94291
17        98.07431  22.26653         12.58600   0.440000 100.81687  22.94291  95.31703  22.90067  95.33180  21.59014 100.83164  21.63238
17        98.08918  20.95545         12.59649   0.440000 100.83164  21.63238  95.33180  21.59014  95.34676  20.27852 100.84660  20.32076
17        98.10423  19.64328         12.60699   0.440000 100.84660  20.32076  95.34676  20.27852  95.36191  18.96581 100.86175  19.00805
17        98.11948  18.33002         12.61750   0.440000 100.86175  19.00805  95.36191  18.96581  95.37725  17.65200 100.87709  17.69424
17        98.13491  17.01567         12.62802   0.440000 100.87709  17.69424  95.37725  17.65200  95.39278  16.33710 100.89262  16.37933
17        98.15054  15.70022         12.63855   0.440000 100.89262  16.37933  95.39278  16.33710  95.40850  15.02110 100.90834  15.06333
17        98.16636  14.38367         12.64909   0.440000 100.90834  15.06333  95.40850  15.02110  95.42442  13.70400 100.92425  13.74624
17        98.18236  13.06602         12.65963   0.440000 100.92425  13.74624  95.42442  13.70400  95.44051  12.38581 100.94035  12.42804
17        98.19856  11.74728         12.67019   0.440000 100.94035  12.42804  95.44051  12.38581  95.45680  11.06651 100.95664  11.10875
17        98.21494  10.42743         12.68075   0.440000 100.95664  11.10875  95.45680  11.06651  95.47328   9.74612 100.97312   9.78835
17        98.23151   9.10649         12.69132   0.440000 100.97312   9.78835  95.47328   9.74612  95.48994   8.42462 100.98978   8.46686
17        98.24826   7.78444         12.70190   0.440000 100.98978   8.46686  95.48994   8.42462  95.50679   7.10203 101.00663   7.14426
17        98.26521   6.46130         12.71249   0.440000 101.00663   7.14426  95.50679   7.10203  95.52383   5.77833 101.02367   5.82056
17        98.28234   5.13705         12.72309   0.440000 101.02367   5.82056  95.52383   5.77833  95.54105   4.45353 101.04089   4.49576
17        98.29965   3.81169         12.73370   0.440000 101.04089   4.49576  95.54105   4.45353  95.55846   3.12762 101.05830   3.16986
17        98.31716   2.48523         12.74431   0.440000 101.05830   3.16986  95.55846   3.12762  95.57606   1.80061 101.07589   1.84284
17        98.33484   1.15767         12.75494   0.440000 101.07589   1.84284  95.57606   1.80061  95.59384   0.47249 101.09367   0.51472
16        87.57650 127.00503         12.47116   0.640000  90.32989 127.64738  84.83023 127.58594  84.82316 126.36268  90.32281 126.42411
16        87.56952 125.78125         12.48155   0.640000  90.32281 126.42411  84.82316 126.36268  84.81627 125.13839  90.31593 125.19983
16        87.56273 124.55646         12.49196   0.640000  90.31593 125.19983  84.81627 125.13839  84.80957 123.91309  90.30923 123.97452
16        87.55612 123.33064         12.50237   0.640000  90.30923 123.97452  84.80957 123.91309  84.80306 122.68676  90.30272 122.74819
16        87.54970 122.10380         12.51280   0.640000  90.30272 122.74819  84.80306 122.68676  84.79673 121.45941  90.29639 121.52084
16        87.54347 120.87594         12.52323   0.640000  90.29639 121.52084  84.79673 121.45941  84.79059 120.23104  90.29024 120.29247
16        87.53741 119.64706         12.53367   0.640000  90.29024 120.29247  84.79059 120.23104  84.78461 119.00164  90.28427 119.06308
16        87.53152 118.41715         12.54412   0.640000  90.28427 119.06308  84.78461 119.00164  84.77881 117.77122  90.27847 117.83265
16        87.52581 117.18621         12.55457   0.640000  90.27847 117.83265  84.77881 117.77122  84.77319 116.53977  90.27284 116.60121
16        87.52027 115.95425         12.56504   0.640000  90.27284 116.60121  84.77319 116.53977  84.76773 115.30730  90.26739 115.36873
16        87.51489 114.72126         12.57552   0.640000  90.26739 115.36873  84.76773 115.30730  84.76244 114.07380  90.26209 114.13523
16        87.50968 113.48725         12.58600   0.640000  90.26209 114.13523  84.76244 114.07380  84.75730 112.83927  90.25696 112.90070
16        87.50463 112.25221         12.59649   0.640000  90.25696 112.90070  84.75730 112.83927  84.75233 111.60371  90.25199 111.66514
16        87.49973 111.01613         12.60699   0.640000  90.25199 111.66514  84.75233 111.60371  84.74752 110.36712  90.24718 110.42855
16        87.49500 109.77903         12.61750   0.640000  90.24718 110.42855  84.74752 110.36712  84.74286 109.12950  90.24252 109.19093
16        87.49041 108.54089         12.62802   0.640000  90.24252 109.19093  84.74286 109.12950  84.73835 107.89085  90.23801 107.95228
16        87.48598 107.30172         12.63855   0.640000  90.23801 107.95228  84.73835 107.89085  84.73399 106.65116  90.23365 106.71260
16        87.48169 106.06152         12.64909   0.640000  90.23365 106.71260  84.73399 106.65116  84.72977 105.41045  90.22943 105.47188
16        87.47755 104.82029         12.65963   0.640000  90.22943 105.47188  84.72977 105.41045  84.72570 104.16869  90.22535 104.23013
16        87.47354 103.57802         12.67019   0.640000  90.22535 104.23013  84.72570 104.16869  84.72176 102.92591  90.22142 102.98734
16        87.46967 102.33471         12.68075   0.640000  90.22142 102.98734  84.72176 102.92591  84.71796 101.68208  90.21762 101.74352
16        87.46594 101.09037         12.69132   0.640000  90.21762 101.74352  84.71796 101.68208  84.71430 100.43722  90.21395 100.49866
16        87.46234  99.84499         12.70190   0.640000  90.21395 100.49866  84.71430 100.43722  84.71076  99.19133  90.21042  99.25276
16        87.45887  98.59857         12.71249   0.640000  90.21042  99.25276  84.71076  99.19133  84.70735  97.94439  90.20701  98.00582
16        87.45552  97.35112         12.72309   0.640000  90.20701  98.00582  84.70735  97.94439  84.70407  96.69641  90.20372  96.75785
16        87.45230  96.10262         12.73370   0.640000  90.20372  96.75785  84.70407  96.69641  84.70090  95.44740  90.20056  95.50883
16        87.44919  94.85308         12.74431   0.640000  90.20056  95.50883  84.70090  95.44740  84.69785  94.19734  90.19751  94.25877
16        87.44620  93.60251         12.75494   0.640000  90.19751  94.25877  84.69785  94.19734  84.69492  92.94624  90.19458  93.00767
16        87.44332  92.35088         12.76557   0.640000  90.19458  93.00767  84.69492  92.94624  84.69210  91.69410  90.19176  91.75553
16        87.44056  91.09822         12.77621   0.640000  90.19176  91.75553  84.69210  91.69410  84.68939  90.44091  90.18904  90.50234
16        87.43790  89.84451         12.78686   0.640000  90.18904  90.50234  84.68939  90.44091  84.68678  89.18668  90.18643  89.24811
16        87.43534  88.58976         12.79752   0.640000  90.18643  89.24811  84.68678  89.18668  84.68427  87.93140  90.18393  87.99283
16        87.43288  87.33395         12.80819   0.640000  90.18393  87.99283  84.68427  87.93140  84.68186  86.67508  90.18152  86.73651
16        87.43052  86.07711         12.81887   0.640000  90.18152  86.73651  84.68186  86.67508  84.67955  85.41770  90.17921  85.47914
16        87.42826  84.81921         12.82956   0.640000  90.17921  85.47914  84.67955  85.41770  84.67733  84.15929  90.17699  84.22072
16        87.42608  83.56027         12.84025   0.640000  90.17699  84.22072  84.67733  84.15929  84.67520  82.89982  90.17485  82.96125
16        87.42399  82.30028         12.85096   0.640000  90.17485  82.96125  84.67520  82.89982  84.67315  81.63930  90.17281  81.70073
16        87.42199  81.03923         12.86167   0.640000  90.17281  81.70073  84.67315  81.63930  84.67119  80.37773  90.17084  80.43916
16        87.42006  79.77714         12.87240   0.640000  90.17084  80.43916  84.67119  80.37773  84.66930  79.11511  90.16896  79.17654
16        87.41822  78.51399         12.88313   0.640000  90.16896  79.17654  84.66930  79.11511  84.66749  77.85144  90.16715  77.91287
16        87.41644  77.24979         12.89387   0.640000  90.16715  77.91287  84.66749  77.85144  84.66575  76.58671  90.16541  76.64814
16        87.41474  75.98453         12.90462   0.640000  90.16541  76.64814  84.66575  76.58671  84.66409  75.32093  90.16374  75.38236
16        87.41310  74.71823         12.91537   0.640000  90.16374  75.38236  84.66409  75.32093  84.66248  74.05409  90.16214  74.11552
16        87.41153  73.45086         12.92614   0.640000  90.16214  74.11552  84.66248  74.05409  84.66094  72.78620  90.16060  72.84763
16        87.41002  72.18244         12.93692   0.640000  90.16060  72.84763  84.66094  72.78620  84.65946  71.51725  90.15912  71.57868
16        87.40857  70.91296         12.94770   0.640000  90.15912  71.57868  84.65946  71.51725  84.65803  70.24724  90.15769  70.30867
16        87.40717  69.64242         12.95850   0.640000  90.15769  70.30867  84.65803  70.24724  84.65666  68.97617  90.15631  69.03761
16        87.40581  68.37083         12.96930   0.640000  90.15631  69.03761  84.65666  68.97617  84.65533  67.70405  90.15498  67.76548
16        87.40451  67.09817         12.98011   0.640000  90.15498  67.76548  84.65533  67.70405  84.65405  66.43086  90.15370  66.49230
16        87.40325  65.82445         12.99093   0.640000  90.15370  66.49230  84.65405  66.43086  84.65280  65.15661  90.15246  65.21805
16        87.40203  64.54967         13.00176   0.640000  90.15246  65.21805  84.65280  65.15661  84.65160  63.88130  90.15126  63.94274
16        87.40084  63.27383         13.01260   0.640000  90.15126  63.94274  84.65160  63.88130  84.65043  62.60493  90.15009  62.66636
16        87.39969  61.99693         13.02345   0.640000  90.15009  62.66636  84.65043  62.60493  84.64929  61.32749  90.14895  61.38893
16        87.39856  60.71896         13.03431   0.640000  90.14895  61.38893  84.64929  61.32749  84.64818  60.04899  90.14784  60.11042
16        87.39746  59.43992         13.04518   0.640000  90.14784  60.11042  84.64818  60.04899  84.64709  58.76942  90.14675  58.83086
16        87.39638  58.15982         13.05605   0.640000  90.14675  58.83086  84.64709  58.76942  84.64602  57.48879  90.14568  57.55022
16        87.39532  56.87865         13.06694   0.640000  90.14568  57.55022  84.64602  57.48879  84.64497  56.20708  90.14463  56.26852
16        87.39428  55.59641         13.07783   0.640000  90.14463  56.26852  84.64497  56.20708  84.64393  54.92431  90.14359  54.98575
16        87.39324  54.31311         13.08873   0.640000  90.14359  54.98575  84.64393  54.92431  84.64290  53.64047  90.14256  53.70191
16        87.39222  53.02873         13.09964   0.640000  90.14256  53.70191  84.64290  53.64047  84.64187  52.35556  90.14153  52.41699
16        87.39119  51.74329         13.11057   0.640000  90.14153  52.41699  84.64187  52.35556  84.64085  51.06958  90.14051  51.13101
16        87.39017  50.45677         13.12150   0.640000  90.14051  51.13101  84.64085  51.06958  84.63982  49.78252  90.13948  49.84396
16        87.38914  49.16918         13.13243   0.640000  90.13948  49.84396  84.63982  49.78252  84.63879  48.49440  90.13845  48.55583
16        87.38810  47.88051         13.14338   0.640000  90.13845  48.55583  84.63879  48.49440  84.63775  47.20520  90.13741  47.26663
16        87.38705  46.59078         13.15434   0.640000  90.13741  47.26663  84.63775  47.20520  84.63669  45.91492  90.13635  45.97635
16        87.38599  45.29996         13.16531   0.640000  90.13635  45.97635  84.63669  45.91492  84.63562  44.62357  90.13528  44.68500
16        87.38490  44.00807         13.17628   0.640000  90.13528  44.68500  84.63562  44.62357  84.63452  43.33114  90.13418  43.39258
16        87.38380  42.71511         13.18727   0.640000  90.13418  43.39258  84.63452  43.33114  84.63341  42.03764  90.13306  42.09907
16        87.38266  41.42106         13.19826   0.640000  90.13306  42.09907  84.63341  42.03764  84.63226  40.74305  90.13191  40.80449
16        87.38150  40.12594         13.20926   0.640000  90.13191  40.80449  84.63226  40.74305  84.63108  39.44739  90.13073  39.50882
16        87.38030  38.82973         13.22028   0.640000  90.13073  39.50882  84.63108  39.44739  84.62986  38.15065  90.12951  38.21208
16        87.37906  37.53245         13.23130   0.640000  90.12951  38.21208  84.62986  38.15065  84.62860  36.85282  90.12826  36.91426
16        87.37778  36.23409         13.24233   0.640000  90.12826  36.91426  84.62860  36.85282  84.62730  35.55392  90.12695  35.61535
16        87.37645  34.93464         13.25337   0.640000  90.12695  35.61535  84.62730  35.55392  84.62594  34.25393  90.12560  34.31536
16        87.37508  33.63411         13.26442   0.640000  90.12560  34.31536  84.62594  34.25393  84.62454  32.95285  90.12420  33.01429
16        87.37364  32.33249         13.27548   0.640000  90.12420  33.01429  84.62454  32.95285  84.62308  31.65070  90.12274  31.71213
16        87.37215  31.02979         13.28654   0.640000  90.12274  31.71213  84.62308  31.65070  84.62156  30.34745  90.12121  30.40889
16        87.37060  29.72601         13.29762   0.640000  90.12121  30.40889  84.62156  30.34745  84.61997  29.04312  90.11963  29.10456
16        87.36898  28.42113         13.30871   0.640000  90.11963  29.10456  84.61997  29.04312  84.61832  27.73771  90.11797  27.79914
16        87.36729  27.11517         13.31980   0.640000  90.11797  27.79914  84.61832  27.73771  84.61659  26.43120  90.11625  26.49264
16        87.36553  25.80812         13.33091   0.640000  90.11625  26.49264  84.61659  26.43120  84.61479  25.12361  90.11444  25.18504
16        87.36368  24.49998         13.34202   0.640000  90.11444  25.18504  84.61479  25.12361  84.61290  23.81492  90.11256  23.87636
16        87.36176  23.19075         13.35314   0.640000  90.11256  23.87636  84.61290  23.81492  84.61093  22.50515  90.11059  22.56658
16        87.35974  21.88043         13.36428   0.640000  90.11059  22.56658  84.61093  22.50515  84.60887  21.19428  90.10853  21.25571
16        87.35764  20.56902         13.37542   0.640000  90.10853  21.25571  84.60887  21.19428  84.60672  19.88232  90.10638  19.94375
16        87.35544  19.25651         13.38657   0.640000  90.10638  19.94375  84.60672  19.88232  84.60447  18.56927  90.10413  18.63070
16        87.35314  17.94291         13.39773   0.640000  90.10413  18.63070  84.60447  18.56927  84.60212  17.25512  90.10178  17.31655
16        87.35073  16.62821         13.40890   0.640000  90.10178  17.31655  84.60212  17.25512  84.59966  15.93987  90.09932  16.00131
16        87.34822  15.31242         13.42008   0.640000  90.09932  16.00131  84.59966  15.93987  84.59710  14.62353  90.09675  14.68497
16        87.34560  13.99553         13.43126   0.640000  90.09675  14.68497  84.59710  14.62353  84.59441  13.30609  90.09407  13.36753
16        87.34286  12.67754         13.44246   0.640000  90.09407  13.36753  84.59441  13.30609  84.59161  11.98756  90.09127  12.04899
16        87.33999  11.35846         13.45367   0.640000  90.09127  12.04899  84.59161  11.98756  84.58869  10.66792  90.08834  10.72936
16        87.33701  10.03827         13.46488   0.640000  90.08834  10.72936  84.58869  10.66792  84.58564   9.34719  90.08529   9.40862
16        87.33389   8.71699         13.47611   0.640000  90.08529   9.40862  84.58564   9.34719  84.58245   8.02535  90.08211   8.08679
16        87.33064   7.39460         13.48734   0.640000  90.08211   8.08679  84.58245   8.02535  84.57913   6.70241  90.07879   6.76385
16        87.32725   6.07111         13.49859   0.640000  90.07879   6.76385  84.57913   6.70241  84.57567   5.37837  90.07533   5.43980
16        87.32372   4.74652         13.50984   0.640000  90.07533   5.43980  84.57567   5.37837  84.57207   4.05323  90.07172   4.11466
16        87.32004   3.42082         13.52110   0.640000  90.07172   4.11466  84.57207   4.05323  84.56831   2.72698  90.06797   2.78841
16        87.31621   2.09401         13.53238   0.640000  90.06797   2.78841  84.56831   2.72698  84.56440   1.39962  90.06406   1.46105
15        76.55696 127.28518         13.28654   0.940000  79.31186 127.94174  73.81260 127.85151  73.80199 126.62861  79.30125 126.71884
15        76.54620 126.06176         13.29762   0.940000  79.30125 126.71884  73.80199 126.62861  73.79108 125.40469  79.29034 125.49492
15        76.53514 124.83733         13.30871   0.940000  79.29034 125.49492  73.79108 125.40469  73.77988 124.17975  79.27914 124.26998
15        76.52381 123.61188         13.31980   0.940000  79.27914 124.26998  73.77988 124.17975  73.76841 122.95378  79.26767 123.04401
15        76.51220 122.38541         13.33091   0.940000  79.26767 123.04401  73.76841 122.95378  73.75667 121.72680  79.25593 121.81703
15        76.50034 121.15791         13.34202   0.940000  79.25593 121.81703  73.75667 121.72680  73.74468 120.49879  79.24394 120.58902
15        76.48822 119.92939         13.35314   0.940000  79.24394 120.58902  73.74468 120.49879  73.73244 119.26975  79.23170 119.35998
15        76.47587 118.69984         13.36428   0.940000  79.23170 119.35998  73.73244 119.26975  73.71997 118.03970  79.21923 118.12993
15        76.46328 117.46927         13.37542   0.940000  79.21923 118.12993  73.71997 118.03970  73.70727 116.80861  79.20653 116.89884
15        76.45047 116.23767         13.38657   0.940000  79.20653 116.89884  73.70727 116.80861  73.69436 115.57650  79.19362 115.66673
15        76.43745 115.00505         13.39773   0.940000  79.19362 115.66673  73.69436 115.57650  73.68124 114.34336  79.18050 114.43359
15        76.42423 113.77139         13.40890   0.940000  79.18050 114.43359  73.68124 114.34336  73.66792 113.10920  79.16718 113.19943
15        76.41082 112.53671         13.42008   0.940000  79.16718 113.19943  73.66792 113.10920  73.65442 111.87400  79.15368 111.96423
15        76.39723 111.30100         13.43126   0.940000  79.15368 111.96423  73.65442 111.87400  73.64075 110.63777  79.14001 110.72800
15        76.38348 110.06426         13.44246   0.940000  79.14001 110.72800  73.64075 110.63777  73.62691 109.40052  79.12617 109.49075
15        76.36956 108.82649         13.45367   0.940000  79.12617 109.49075  73.62691 109.40052  73.61291 108.16223  79.11217 108.25246
15        76.35549 107.58768         13.46488   0.940000  79.11217 108.25246  73.61291 108.16223  73.59878 106.92291  79.09804 107.01313
15        76.34129 106.34784         13.47611   0.940000  79.09804 107.01313  73.59878 106.92291  73.58451 105.68255  79.08377 105.77278
15        76.32695 105.10697         13.48734   0.940000  79.08377 105.77278  73.58451 105.68255  73.57011 104.44116  79.06937 104.53139
15        76.31250 103.86506         13.49859   0.940000  79.06937 104.53139  73.57011 104.44116  73.55561 103.19874  79.05487 103.28896
15        76.29794 102.62212         13.50984   0.940000  79.05487 103.28896  73.55561 103.19874  73.54100 101.95527  79.04026 102.04550
15        76.28329 101.37814         13.52110   0.940000  79.04026 102.04550  73.54100 101.95527  73.52630 100.71078  79.02556 100.80101
15        76.26855 100.13312         13.53238   0.940000  79.02556 100.80101  73.52630 100.71078  73.51152  99.46524  79.01078  99.55547
15        76.25374  98.88707         13.54366   0.940000  79.01078  99.55547  73.51152  99.46524  73.49668  98.21867  78.99594  98.30889
15        76.23886  97.63997         13.55495   0.940000  78.99594  98.30889  73.49668  98.21867  73.48177  96.97105  78.98103  97.06128
15        76.22393  96.39184         13.56625   0.940000  78.98103  97.06128  73.48177  96.97105  73.46682  95.72240  78.96608  95.81263
15        76.20896  95.14266         13.57756   0.940000  78.96608  95.81263  73.46682  95.72240  73.45183  94.47270  78.95109  94.56293
15        76.19395  93.89245         13.58888   0.940000  78.95109  94.56293  73.45183  94.47270  73.43681  93.22196  78.93607  93.31219
15        76.17893  92.64119         13.60021   0.940000  78.93607  93.31219  73.43681  93.22196  73.42179  91.97018  78.92105  92.06041
15        76.16390  91.38888         13.61155   0.940000  78.92105  92.06041  73.42179  91.97018  73.40675  90.71735  78.90601  90.80758
15        76.14887  90.13553         13.62289   0.940000  78.90601  90.80758  73.40675  90.71735  73.39173  89.46348  78.89099  89.55371
15        76.13385  88.88114         13.63425   0.940000  78.89099  89.55371  73.39173  89.46348  73.37672  88.20857  78.87598  88.29880
15        76.11886  87.62570         13.64562   0.940000  78.87598  88.29880  73.37672  88.20857  73.36175  86.95261  78.86101  87.04284
15        76.10390  86.36922         13.65699   0.940000  78.86101  87.04284  73.36175  86.95261  73.34682  85.69560  78.84608  85.78583
15        76.08900  85.11168         13.66838   0.940000  78.84608  85.78583  73.34682  85.69560  73.33194  84.43754  78.83120  84.52777
15        76.07415  83.85310         13.67977   0.940000  78.83120  84.52777  73.33194  84.43754  73.31712  83.17843  78.81638  83.26866
15        76.05937  82.59347         13.69118   0.940000  78.81638  83.26866  73.31712  83.17843  73.30238  81.91827  78.80164  82.00850
15        76.04467  81.33278         13.70259   0.940000  78.80164  82.00850  73.30238  81.91827  73.28773  80.65706  78.78699  80.74729
15        76.03007  80.07105         13.71402   0.940000  78.78699  80.74729  73.28773  80.65706  73.27318  79.39480  78.77244  79.48503
15        76.01557  78.80826         13.72545   0.940000  78.77244  79.48503  73.27318  79.39480  73.25874  78.13149  78.75800  78.22172
15        76.00119  77.54442         13.73689   0.940000  78.75800  78.22172  73.25874  78.13149  73.24442  76.86712  78.74368  76.95735
15        75.98694  76.27953         13.74834   0.940000  78.74368  76.95735  73.24442  76.86712  73.23024  75.60170  78.72950  75.69193
15        75.97283  75.01358         13.75981   0.940000  78.72950  75.69193  73.23024  75.60170  73.21621  74.33523  78.71547  74.42546
15        75.95888  73.74658         13.77128   0.940000  78.71547  74.42546  73.21621  74.33523  73.20233  73.06769  78.70159  73.15792
15        75.94508  72.47851         13.78276   0.940000  78.70159  73.15792  73.20233  73.06769  73.18862  71.79910  78.68788  71.88933
15        75.93147  71.20940         13.79425   0.940000  78.68788  71.88933  73.18862  71.79910  73.17510  70.52946  78.67436  70.61969
15        75.91804  69.93922         13.80575   0.940000  78.67436  70.61969  73.17510  70.52946  73.16177  69.25875  78.66103  69.34898
15        75.90481  68.66798         13.81726   0.940000  78.66103  69.34898  73.16177  69.25875  73.14865  67.98698  78.64791  68.07721
15        75.89180  67.39569         13.82878   0.940000  78.64791  68.07721  73.14865  67.98698  73.13574  66.71416  78.63500  66.80439
15        75.87901  66.12233         13.84031   0.940000  78.63500  66.80439  73.13574  66.71416  73.12307  65.44027  78.62233  65.53050
15        75.86646  64.84791         13.85185   0.940000  78.62233  65.53050  73.12307  65.44027  73.11065  64.16532  78.60991  64.25555
15        75.85416  63.57243         13.86339   0.940000  78.60991  64.25555  73.11065  64.16532  73.09847  62.88930  78.59773  62.97953
15        75.84212  62.29588         13.87495   0.940000  78.59773  62.97953  73.09847  62.88930  73.08657  61.61223  78.58583  61.70246
15        75.83035  61.01827         13.88652   0.940000  78.58583  61.70246  73.08657  61.61223  73.07495  60.33408  78.57421  60.42431
15        75.81888  59.73959         13.89809   0.940000  78.57421  60.42431  73.07495  60.33408  73.06362  59.05487  78.56288  59.14510
15        75.80770  58.45985         13.90968   0.940000  78.56288  59.14510  73.06362  59.05487  73.05260  57.77460  78.55186  57.86483
15        75.79684  57.17904         13.92128   0.940000  78.55186  57.86483  73.05260  57.77460  73.04190  56.49325  78.54116  56.58348
15        75.78630  55.89716         13.93288   0.940000  78.54116  56.58348  73.04190  56.49325  73.03153  55.21084  78.53079  55.30107
15        75.77610  54.61421         13.94450   0.940000  78.53079  55.30107  73.03153  55.21084  73.02150  53.92736  78.52076  54.01759
15        75.76625  53.33020         13.95612   0.940000  78.52076  54.01759  73.02150  53.92736  73.01183  52.64281  78.51109  52.73304
15        75.75677  52.04511         13.96776   0.940000  78.51109  52.73304  73.01183  52.64281  73.00253  51.35718  78.50179  51.44741
15        75.74766  50.75895         13.97940   0.940000  78.50179  51.44741  73.00253  51.35718  72.99362  50.07049  78.49288  50.16072
15        75.73894  49.47172         13.99106   0.940000  78.49288  50.16072  72.99362  50.07049  72.98510  48.78272  78.48436  48.87295
15        75.73063  48.18341         14.00272   0.940000  78.48436  48.87295  72.98510  48.78272  72.97700  47.49388  78.47626  47.58411
15        75.72273  46.89403         14.01440   0.940000  78.47626  47.58411  72.97700  47.49388  72.96931  46.20396  78.46857  46.29419
15        75.71526  45.60358         14.02608   0.940000  78.46857  46.29419  72.96931  46.20396  72.96206  44.91296  78.46132  45.00319
15        75.70824  44.31204         14.03777   0.940000  78.46132  45.00319  72.96206  44.91296  72.95527  43.62089  78.45453  43.71112
15        75.70167  43.01944         14.04948   0.940000  78.45453  43.71112  72.95527  43.62089  72.94893  42.32775  78.44819  42.41798
15        75.69557  41.72575         14.06119   0.940000  78.44819  42.41798  72.94893  42.32775  72.94307  41.03352  78.44233  41.12375
15        75.68995  40.43098         14.07291   0.940000  78.44233  41.12375  72.94307  41.03352  72.93770  39.73821  78.43696  39.82844
15        75.68484  39.13514         14.08464   0.940000  78.43696  39.82844  72.93770  39.73821  72.93284  38.44183  78.43210  38.53206
15        75.68023  37.83821         14.09639   0.940000  78.43210  38.53206  72.93284  38.44183  72.92849  37.14436  78.42775  37.23459
15        75.67614  36.54020         14.10814   0.940000  78.42775  37.23459  72.92849  37.14436  72.92467  35.84581  78.42393  35.93604
15        75.67260  35.24111         14.11990   0.940000  78.42393  35.93604  72.92467  35.84581  72.92140  34.54618  78.42066  34.63641
15        75.66960  33.94094         14.13167   0.940000  78.42066  34.63641  72.92140  34.54618  72.91869  33.24547  78.41795  33.33569
15        75.66717  32.63968         14.14345   0.940000  78.41795  33.33569  72.91869  33.24547  72.91654  31.94366  78.41580  32.03389
15        75.66532  31.33734         14.15524   0.940000  78.41580  32.03389  72.91654  31.94366  72.91499  30.64078  78.41425  30.73101
15        75.66407  30.03391         14.16704   0.940000  78.41425  30.73101  72.91499  30.64078  72.91404  29.33681  78.41330  29.42703
15        75.66342  28.72939         14.17886   0.940000  78.41330  29.42703  72.91404  29.33681  72.91370  28.03174  78.41296  28.12197
15        75.66339  27.42379         14.19068   0.940000  78.41296  28.12197  72.91370  28.03174  72.91399  26.72560  78.41325  26.81583
15        75.66400  26.11709         14.20251   0.940000  78.41325  26.81583  72.91399  26.72560  72.91492  25.41836  78.41418  25.50859
15        75.66526  24.80931         14.21435   0.940000  78.41418  25.50859  72.91492  25.41836  72.91651  24.11003  78.41577  24.20026
15        75.66718  23.50043         14.22620   0.940000  78.41577  24.20026  72.91651  24.11003  72.91877  22.80061  78.41803  22.89084
15        75.66979  22.19047         14.23806   0.940000  78.41803  22.89084  72.91877  22.80061  72.92172  21.49010  78.42098  21.58033
15        75.67308  20.87941         14.24993   0.940000  78.42098  21.58033  72.92172  21.49010  72.92537  20.17849  78.42463  20.26872
15        75.67709  19.56726         14.26181   0.940000  78.42463  20.26872  72.92537  20.17849  72.92973  18.86580  78.42899  18.95603
15        75.68181  18.25401         14.27370   0.940000  78.42899  18.95603  72.92973  18.86580  72.93482  17.55200  78.43408  17.64223
15        75.68728  16.93967         14.28560   0.940000  78.43408  17.64223  72.93482  17.55200  72.94066  16.23711  78.43992  16.32734
15        75.69349  15.62424         14.29751   0.940000  78.43992  16.32734  72.94066  16.23711  72.94726  14.92113  78.44652  15.01136
15        75.70048  14.30770         14.30943   0.940000  78.44652  15.01136  72.94726  14.92113  72.95463  13.60405  78.45389  13.69427
15        75.70824  12.99007         14.32136   0.940000  78.45389  13.69427  72.95463  13.60405  72.96279  12.28586  78.46205  12.37609
15        75.71680  11.67134         14.33329   0.940000  78.46205  12.37609  72.96279  12.28586  72.97176  10.96658  78.47102  11.05681
15        75.72618  10.35151         14.34524   0.940000  78.47102  11.05681  72.97176  10.96658  72.98154   9.64620  78.48080   9.73643
15        75.73637   9.03058         14.35720   0.940000  78.48080   9.73643  72.98154   9.64620  72.99216   8.32472  78.49142   8.41495
15        75.74742   7.70854         14.36917   0.940000  78.49142   8.41495  72.99216   8.32472  73.00363   7.00214  78.50289   7.09237
15        75.75931   6.38541         14.38115   0.940000  78.50289   7.09237  73.00363   7.00214  73.01596   5.67845  78.51522   5.76868
15        75.77209   5.06117         14.39314   0.940000  78.51522   5.76868  73.01596   5.67845  73.02917   4.35366  78.52843   4.44389
15        75.78574   3.73582         14.40514   0.940000  78.52843   4.44389  73.02917   4.35366  73.04328   3.02776  78.54254   3.11799
15        75.80031   2.40938         14.41715   0.940000  78.54254   3.11799  73.04328   3.02776  73.05830   1.70076  78.55756   1.79099
15        75.81579   1.08182         14.42917   0.940000  78.55756   1.79099  73.05830   1.70076  73.07424   0.37265  78.57350   0.46288
14        64.00353 127.73702         14.21435   1.420000  66.75872 128.41644  61.26041 128.28014  61.24819 127.05760  66.74650 127.19389
14        63.99100 126.51396         14.22620   1.420000  66.74650 127.19389  61.24819 127.05760  61.23534 125.83403  66.73365 125.97033
14        63.97784 125.28989         14.23806   1.420000  66.73365 125.97033  61.23534 125.83403  61.22188 124.60945  66.72019 124.74575
14        63.96407 124.06479         14.24993   1.420000  66.72019 124.74575  61.22188 124.60945  61.20781 123.38384  66.70612 123.52014
14        63.94970 122.83868         14.26181   1.420000  66.70612 123.52014  61.20781 123.38384  61.19314 122.15722  66.69146 122.29351
14        63.93475 121.61154         14.27370   1.420000  66.69146 122.29351  61.19314 122.15722  61.17790 120.92957  66.67621 121.06586
14        63.91922 120.38338         14.28560   1.420000  66.67621 121.06586  61.17790 120.92957  61.16209 119.70089  66.66040 119.83719
14        63.90313 119.15419         14.29751   1.420000  66.66040 119.83719  61.16209 119.70089  61.14573 118.47119  66.64404 118.60749
14        63.88650 117.92398         14.30943   1.420000  66.64404 118.60749  61.14573 118.47119  61.12883 117.24047  66.62714 117.37677
14        63.86933 116.69274         14.32136   1.420000  66.62714 117.37677  61.12883 117.24047  61.11139 116.00872  66.60971 116.14502
14        63.85164 115.46048         14.33329   1.420000  66.60971 116.14502  61.11139 116.00872  61.09345 114.77594  66.59176 114.91224
14        63.83344 114.22719         14.34524   1.420000  66.59176 114.91224  61.09345 114.77594  61.07500 113.54214  66.57331 113.67843
14        63.81475 112.99287         14.35720   1.420000  66.57331 113.67843  61.07500 113.54214  61.05607 112.30730  66.55438 112.44360
14        63.79558 111.75752         14.36917   1.420000  66.55438 112.44360  61.05607 112.30730  61.03666 111.07144  66.53497 111.20774
14        63.77594 110.52114         14.38115   1.420000  66.53497 111.20774  61.03666 111.07144  61.01680 109.83455  66.51511 109.97084
14        63.75585 109.28373         14.39314   1.420000  66.51511 109.97084  61.01680 109.83455  60.99648 108.59662  66.49479 108.73292
14        63.73532 108.04529         14.40514   1.420000  66.49479 108.73292  60.99648 108.59662  60.97574 107.35766  66.47405 107.49396
14        63.71436 106.80582         14.41715   1.420000  66.47405 107.49396  60.97574 107.35766  60.95457 106.11767  66.45288 106.25397
14        63.69299 105.56531         14.42917   1.420000  66.45288 106.25397  60.95457 106.11767  60.93300 104.87665  66.43131 105.01294
14        63.67122 104.32377         14.44120   1.420000  66.43131 105.01294  60.93300 104.87665  60.91104 103.63459  66.40935 103.77089
14        63.64907 103.08119         14.45324   1.420000  66.40935 103.77089  60.91104 103.63459  60.88870 102.39149  66.38701 102.52779
14        63.62655 101.83758         14.46529   1.420000  66.38701 102.52779  60.88870 102.39149  60.86600 101.14736  66.36431 101.28366
14        63.60367 100.59293         14.47735   1.420000  66.36431 101.28366  60.86600 101.14736  60.84295  99.90219  66.34126 100.03849
14        63.58045  99.34724         14.48942   1.420000  66.34126 100.03849  60.84295  99.90219  60.81957  98.65599  66.31788  98.79228
14        63.55691  98.10051         14.50150   1.420000  66.31788  98.79228  60.81957  98.65599  60.79586  97.40874  66.29417  97.54504
14        63.53304  96.85274         14.51359   1.420000  66.29417  97.54504  60.79586  97.40874  60.77185  96.16045  66.27016  96.29675
14        63.50889  95.60394         14.52568   1.420000  66.27016  96.29675  60.77185  96.16045  60.74755  94.91113  66.24586  95.04742
14        63.48444  94.35409         14.53779   1.420000  66.24586  95.04742  60.74755  94.91113  60.72297  93.66076  66.22128  93.79705
14        63.45973  93.10320         14.54991   1.420000  66.22128  93.79705  60.72297  93.66076  60.69812  92.40935  66.19643  92.54564
14        63.43476  91.85127         14.56204   1.420000  66.19643  92.54564  60.69812  92.40935  60.67303  91.15689  66.17134  91.29319
14        63.40955  90.59829         14.57418   1.420000  66.17134  91.29319  60.67303  91.15689  60.64771  89.90339  66.14602  90.03969
14        63.38412  89.34427         14.58633   1.420000  66.14602  90.03969  60.64771  89.90339  60.62217  88.64885  66.12048  88.78514
14        63.35847  88.08920         14.59850   1.420000  66.12048  88.78514  60.62217  88.64885  60.59642  87.39326  66.09473  87.52955
14        63.33263  86.83309         14.61067   1.420000  66.09473  87.52955  60.59642  87.39326  60.57049  86.13662  66.06880  86.27292
14        63.30661  85.57593         14.62285   1.420000  66.06880  86.27292  60.57049  86.13662  60.54438  84.87893  66.04269  85.01523
14        63.28042  84.31772         14.63504   1.420000  66.04269  85.01523  60.54438  84.87893  60.51812  83.62020  66.01643  83.75650
14        63.25408  83.05846         14.64724   1.420000  66.01643  83.75650  60.51812  83.62020  60.49171  82.36042  65.99002  82.49671
14        63.22761  81.79815         14.65945   1.420000  65.99002  82.49671  60.49171  82.36042  60.46517  81.09958  65.96348  81.23588
14        63.20101  80.53679         14.67167   1.420000  65.96348  81.23588  60.46517  81.09958  60.43852  79.83770  65.93684  79.97399
14        63.17432  79.27438         14.68390   1.420000  65.93684  79.97399  60.43852  79.83770  60.41178  78.57476  65.91009  78.71106
14        63.14753  78.01091         14.69614   1.420000  65.91009  78.71106  60.41178  78.57476  60.38495  77.31077  65.88326  77.44707
14        63.12067  76.74640         14.70840   1.420000  65.88326  77.44707  60.38495  77.31077  60.35806  76.04573  65.85637  76.18202
14        63.09375  75.48082         14.72066   1.420000  65.85637  76.18202  60.35806  76.04573  60.33112  74.77963  65.82943  74.91592
14        63.06679  74.21420         14.73293   1.420000  65.82943  74.91592  60.33112  74.77963  60.30414  73.51247  65.80245  73.64877
14        63.03980  72.94651         14.74521   1.420000  65.80245  73.64877  60.30414  73.51247  60.27715  72.24426  65.77546  72.38056
14        63.01280  71.67777         14.75751   1.420000  65.77546  72.38056  60.27715  72.24426  60.25015  70.97499  65.74846  71.11129
14        62.98581  70.40797         14.76981   1.420000  65.74846  71.11129  60.25015  70.97499  60.22317  69.70466  65.72148  69.84096
14        62.95884  69.13712         14.78212   1.420000  65.72148  69.84096  60.22317  69.70466  60.19621  68.43328  65.69452  68.56957
14        62.93190  67.86520         14.79445   1.420000  65.69452  68.56957  60.19621  68.43328  60.16930  67.16083  65.66761  67.29713
14        62.90502  66.59222         14.80678   1.420000  65.66761  67.29713  60.16930  67.16083  60.14246  65.88732  65.64077  66.02362
14        62.87821  65.31818         14.81912   1.420000  65.64077  66.02362  60.14246  65.88732  60.11569  64.61275  65.61400  64.74905
14        62.85149  64.04308         14.83148   1.420000  65.61400  64.74905  60.11569  64.61275  60.08901  63.33712  65.58732  63.47342
14        62.82487  62.76692         14.84384   1.420000  65.58732  63.47342  60.08901  63.33712  60.06245  62.06042  65.56076  62.19672
14        62.79837  61.48969         14.85622   1.420000  65.56076  62.19672  60.06245  62.06042  60.03601  60.78266  65.53432  60.91896
14        62.77200  60.21140         14.86860   1.420000  65.53432  60.91896  60.03601  60.78266  60.00972  59.50384  65.50803  59.64013
14        62.74579  58.93204         14.88100   1.420000  65.50803  59.64013  60.00972  59.50384  59.98359  58.22394  65.48190  58.36024
14        62.71974  57.65161         14.89340   1.420000  65.48190  58.36024  59.98359  58.22394  59.95764  56.94298  65.45595  57.07928
14        62.69389  56.37012         14.90582   1.420000  65.45595  57.07928  59.95764  56.94298  59.93188  55.66096  65.43019  55.79725
14        62.66823  55.08756         14.91825   1.420000  65.43019  55.79725  59.93188  55.66096  59.90633  54.37786  65.40464  54.51416
14        62.64280  53.80392         14.93068   1.420000  65.40464  54.51416  59.90633  54.37786  59.88102  53.09369  65.37933  53.22999
14        62.61760  52.51922         14.94313   1.420000  65.37933  53.22999  59.88102  53.09369  59.85594  51.80846  65.35425  51.94475
14        62.59266  51.23345         14.95559   1.420000  65.35425  51.94475  59.85594  51.80846  59.83113  50.52215  65.32945  50.65844
14        62.56799  49.94660         14.96806   1.420000  65.32945  50.65844  59.83113  50.52215  59.80661  49.23476  65.30492  49.37106
14        62.54360  48.65869         14.98054   1.420000  65.30492  49.37106  59.80661  49.23476  59.78237  47.94631  65.28069  48.08261
14        62.51953  47.36969         14.99303   1.420000  65.28069  48.08261  59.78237  47.94631  59.75846  46.65678  65.25677  46.79308
14        62.49578  46.07963         15.00552   1.420000  65.25677  46.79308  59.75846  46.65678  59.73488  45.36618  65.23319  45.50247
14        62.47237  44.78848         15.01803   1.420000  65.23319  45.50247  59.73488  45.36618  59.71164  44.07449  65.20995  44.21079
14        62.44932  43.49626         15.03055   1.420000  65.20995  44.21079  59.71164  44.07449  59.68878  42.78174  65.18709  42.91803
14        62.42664  42.20297         15.04309   1.420000  65.18709  42.91803  59.68878  42.78174  59.66630  41.48790  65.16461  41.62420
14        62.40436  40.90859         15.05563   1.420000  65.16461  41.62420  59.66630  41.48790  59.64422  40.19299  65.14253  40.32928
14        62.38250  39.61314         15.06818   1.420000  65.14253  40.32928  59.64422  40.19299  59.62257  38.89699  65.12088  39.03329
14        62.36106  38.31660         15.08074   1.420000  65.12088  39.03329  59.62257  38.89699  59.60136  37.59992  65.09967  37.73621
14        62.34007  37.01899         15.09331   1.420000  65.09967  37.73621  59.60136  37.59992  59.58060  36.30176  65.07891  36.43806
14        62.31956  35.72029         15.10590   1.420000  65.07891  36.43806  59.58060  36.30176  59.56032  35.00252  65.05863  35.13882
14        62.29952  34.42051         15.11849   1.420000  65.05863  35.13882  59.56032  35.00252  59.54054  33.70220  65.03885  33.83849
14        62.27999  33.11964         15.13109   1.420000  65.03885  33.83849  59.54054  33.70220  59.52127  32.40079  65.01958  32.53709
14        62.26098  31.81769         15.14371   1.420000  65.01958  32.53709  59.52127  32.40079  59.50253  31.09830  65.00084  31.23460
14        62.24252  30.51466         15.15633   1.420000  65.00084  31.23460  59.50253  31.09830  59.48434  29.79472  64.98265  29.93102
14        62.22461  29.21054         15.16897   1.420000  64.98265  29.93102  59.48434  29.79472  59.46672  28.49006  64.96503  28.62635
14        62.20728  27.90533         15.18161   1.420000  64.96503  28.62635  59.46672  28.49006  59.44969  27.18430  64.94800  27.32060
14        62.19055  26.59903         15.19427   1.420000  64.94800  27.32060  59.44969  27.18430  59.43326  25.87746  64.93157  26.01376
14        62.17443  25.29165         15.20694   1.420000  64.93157  26.01376  59.43326  25.87746  59.41746  24.56953  64.91577  24.70583
14        62.15895  23.98317         15.21962   1.420000  64.91577  24.70583  59.41746  24.56953  59.40230  23.26051  64.90061  23.39681
14        62.14413  22.67360         15.23230   1.420000  64.90061  23.39681  59.40230  23.26051  59.38781  21.95040  64.88612  22.08669
14        62.12997  21.36294         15.24500   1.420000  64.88612  22.08669  59.38781  21.95040  59.37400  20.63919  64.87231  20.77549
14        62.11651  20.05119         15.25771   1.420000  64.87231  20.77549  59.37400  20.63919  59.36089  19.32689  64.85920  19.46319
14        62.10376  18.73834         15.27043   1.420000  64.85920  19.46319  59.36089  19.32689  59.34851  18.01350  64.84682  18.14979
14        62.09174  17.42440         15.28316   1.420000  64.84682  18.14979  59.34851  18.01350  59.33686  16.69901  64.83517  16.83531
14        62.08048  16.10937         15.29590   1.420000  64.83517  16.83531  59.33686  16.69901  59.32598  15.38343  64.82429  15.51972
14        62.06998  14.79323         15.30866   1.420000  64.82429  15.51972  59.32598  15.38343  59.31587  14.06674  64.81418  14.20304
14        62.06027  13.47600         15.32142   1.420000  64.81418  14.20304  59.31587  14.06674  59.30657  12.74896  64.80488  12.88526
14        62.05138  12.15767         15.33419   1.420000  64.80488  12.88526  59.30657  12.74896  59.29809  11.43009  64.79640  11.56638
14        62.04331  10.83825         15.34698   1.420000  64.79640  11.56638  59.29809  11.43009  59.29044  10.11011  64.78875  10.24641
14        62.03610   9.51772         15.35977   1.420000  64.78875  10.24641  59.29044  10.11011  59.28366   8.78903  64.78197   8.92533
14        62.02975   8.19609         15.37258   1.420000  64.78197   8.92533  59.28366   8.78903  59.27776   7.46685  64.77607   7.60315
14        62.02430   6.87336         15.38539   1.420000  64.77607   7.60315  59.27776   7.46685  59.27276   6.14357  64.77107   6.27986
14        62.01975   5.54952         15.39822   1.420000  64.77107   6.27986  59.27276   6.14357  59.26867   4.81918  64.76698   4.95548
14        62.01614   4.22458         15.41106   1.420000  64.76698   4.95548  59.26867   4.81918  59.26553   3.49369  64.76384   3.62999
14        62.01348   2.89854         15.42390   1.420000  64.76384   3.62999  59.26553   3.49369  59.26336   2.16710  64.76167   2.30339
14        62.01179   1.57139         15.43676   1.420000  64.76167   2.30339  59.26336   2.16710  59.26216   0.83939  64.76047   0.97569
13        49.58563 127.07631         15.29590   2.210000  52.35713 127.79395  46.86122 127.58186  46.81431 126.35867  52.31022 126.57076
13        49.53906 125.85262         15.30866   2.210000  52.31022 126.57076  46.81431 126.35867  46.76808 125.13447  52.26399 125.34656
13        49.49315 124.62790         15.32142   2.210000  52.26399 125.34656  46.76808 125.13447  46.72250 123.90924  52.21841 124.12133
13        49.44790 123.40216         15.33419   2.210000  52.21841 124.12133  46.72250 123.90924  46.67756 122.68299  52.17347 122.89508
13        49.40328 122.17540         15.34698   2.210000  52.17347 122.89508  46.67756 122.68299  46.63326 121.45572  52.12917 121.66781
13        49.35930 120.94762         15.35977   2.210000  52.12917 121.66781  46.63326 121.45572  46.58959 120.22742  52.08550 120.43952
13        49.31594 119.71881         15.37258   2.210000  52.08550 120.43952  46.58959 120.22742  46.54654 118.99811  52.04245 119.21020
13        49.27319 118.48898         15.38539   2.210000  52.04245 119.21020  46.54654 118.99811  46.50409 117.76776  52.00000 117.97986
13        49.23104 117.25813         15.39822   2.210000  52.00000 117.97986  46.50409 117.76776  46.46224 116.53640  51.95815 116.74849
13        49.18948 116.02624         15.41106   2.210000  51.95815 116.74849  46.46224 116.53640  46.42097 115.30400  51.91688 115.51609
13        49.14851 114.79333         15.42390   2.210000  51.91688 115.51609  46.42097 115.30400  46.38028 114.07058  51.87619 114.28267
13        49.10810 113.55940         15.43676   2.210000  51.87619 114.28267  46.38028 114.07058  46.34016 112.83613  51.83607 113.04822
13        49.06826 112.32443         15.44963   2.210000  51.83607 113.04822  46.34016 112.83613  46.30059 111.60065  51.79650 111.81274
13        49.02896 111.08844         15.46251   2.210000  51.79650 111.81274  46.30059 111.60065  46.26157 110.36414  51.75748 110.57623
13        48.99021 109.85141         15.47540   2.210000  51.75748 110.57623  46.26157 110.36414  46.22308 109.12660  51.71899 109.33869
13        48.95198 108.61336         15.48830   2.210000  51.71899 109.33869  46.22308 109.12660  46.18511 107.88802  51.68102 108.10012
13        48.91428 107.37427         15.50122   2.210000  51.68102 108.10012  46.18511 107.88802  46.14766 106.64842  51.64357 106.86051
13        48.87708 106.13415         15.51414   2.210000  51.64357 106.86051  46.14766 106.64842  46.11071 105.40778  51.60662 105.61987
13        48.84037 104.89299         15.52707   2.210000  51.60662 105.61987  46.11071 105.40778  46.07426 104.16611  51.57017 104.37820
13        48.80416 103.65080         15.54002   2.210000  51.57017 104.37820  46.07426 104.16611  46.03828 102.92340  51.53419 103.13549
13        48.76842 102.40757         15.55297   2.210000  51.53419 103.13549  46.03828 102.92340  46.00278 101.67966  51.49868 101.89175
13        48.73315 101.16331         15.56594   2.210000  51.49868 101.89175  46.00278 101.67966  45.96773 100.43487  51.46364 100.64697
13        48.69833  99.91801         15.57892   2.210000  51.46364 100.64697  45.96773 100.43487  45.93313  99.18906  51.42904  99.40115
13        48.66395  98.67167         15.59190   2.210000  51.42904  99.40115  45.93313  99.18906  45.89897  97.94220  51.39488  98.15429
13        48.63001  97.42430         15.60490   2.210000  51.39488  98.15429  45.89897  97.94220  45.86524  96.69430  51.36115  96.90639
13        48.59648  96.17588         15.61791   2.210000  51.36115  96.90639  45.86524  96.69430  45.83192  95.44536  51.32783  95.65746
13        48.56337  94.92642         15.63093   2.210000  51.32783  95.65746  45.83192  95.44536  45.79901  94.19539  51.29492  94.40748
13        48.53065  93.67592         15.64396   2.210000  51.29492  94.40748  45.79901  94.19539  45.76649  92.94437  51.26240  93.15646
13        48.49833  92.42438         15.65701   2.210000  51.26240  93.15646  45.76649  92.94437  45.73435  91.69230  51.23026  91.90440
13        48.46637  91.17180         15.67006   2.210000  51.23026  91.90440  45.73435  91.69230  45.70258  90.43920  51.19849  90.65129
13        48.43479  89.91817         15.68312   2.210000  51.19849  90.65129  45.70258  90.43920  45.67118  89.18504  51.16709  89.39714
13        48.40355  88.66349         15.69620   2.210000  51.16709  89.39714  45.67118  89.18504  45.64012  87.92985  51.13602  88.14194
13        48.37266  87.40777         15.70928   2.210000  51.13602  88.14194  45.64012  87.92985  45.60939  86.67360  51.10530  86.88570
13        48.34210  86.15100         15.72238   2.210000  51.10530  86.88570  45.60939  86.67360  45.57899  85.41631  51.07490  85.62840
13        48.31186  84.89319         15.73549   2.210000  51.07490  85.62840  45.57899  85.41631  45.54890  84.15797  51.04481  84.37007
13        48.28193  83.63433         15.74860   2.210000  51.04481  84.37007  45.54890  84.15797  45.51912  82.89859  51.01503  83.11068
13        48.25229  82.37441         15.76173   2.210000  51.01503  83.11068  45.51912  82.89859  45.48962  81.63815  50.98553  81.85024
13        48.22293  81.11345         15.77487   2.210000  50.98553  81.85024  45.48962  81.63815  45.46040  80.37666  50.95631  80.58875
13        48.19384  79.85143         15.78803   2.210000  50.95631  80.58875  45.46040  80.37666  45.43145  79.11412  50.92736  79.32621
13        48.16502  78.58837         15.80119   2.210000  50.92736  79.32621  45.43145  79.11412  45.40275  77.85052  50.89866  78.06262
13        48.13644  77.32425         15.81436   2.210000  50.89866  78.06262  45.40275  77.85052  45.37429  76.58588  50.87020  76.79797
13        48.10810  76.05907         15.82755   2.210000  50.87020  76.79797  45.37429  76.58588  45.34606  75.32018  50.84197  75.53227
13        48.07998  74.79285         15.84074   2.210000  50.84197  75.53227  45.34606  75.32018  45.31805  74.05342  50.81396  74.26551
13        48.05208  73.52556         15.85395   2.210000  50.81396  74.26551  45.31805  74.05342  45.29025  72.78561  50.78616  72.99770
13        48.02437  72.25722         15.86716   2.210000  50.78616  72.99770  45.29025  72.78561  45.26263  71.51674  50.75854  71.72883
13        47.99685  70.98782         15.88039   2.210000  50.75854  71.72883  45.26263  71.51674  45.23520  70.24681  50.73111  70.45891
13        47.96950  69.71737         15.89363   2.210000  50.73111  70.45891  45.23520  70.24681  45.20794  68.97583  50.70385  69.18792
13        47.94232  68.44585         15.90688   2.210000  50.70385  69.18792  45.20794  68.97583  45.18083  67.70378  50.67674  67.91587
13        47.91529  67.17328         15.92014   2.210000  50.67674  67.91587  45.18083  67.70378  45.15387  66.43068  50.64978  66.64277
13        47.88839  65.89964         15.93341   2.210000  50.64978  66.64277  45.15387  66.43068  45.12704  65.15651  50.62295  65.36860
13        47.86162  64.62494         15.94670   2.210000  50.62295  65.36860  45.12704  65.15651  45.10032  63.88128  50.59623  64.09337
13        47.83496  63.34918         15.95999   2.210000  50.59623  64.09337  45.10032  63.88128  45.07371  62.60499  50.56962  62.81708
13        47.80839  62.07236         15.97330   2.210000  50.56962  62.81708  45.07371  62.60499  45.04720  61.32763  50.54310  61.53972
13        47.78192  60.79447         15.98661   2.210000  50.54310  61.53972  45.04720  61.32763  45.02076  60.04921  50.51667  60.26130
13        47.75552  59.51551         15.99994   2.210000  50.51667  60.26130  45.02076  60.04921  44.99439  58.76972  50.49030  58.98182
13        47.72918  58.23549         16.01328   2.210000  50.49030  58.98182  44.99439  58.76972  44.96807  57.48917  50.46398  57.70126
13        47.70288  56.95441         16.02663   2.210000  50.46398  57.70126  44.96807  57.48917  44.94180  56.20755  50.43771  56.41964
13        47.67662  55.67225         16.03999   2.210000  50.43771  56.41964  44.94180  56.20755  44.91555  54.92486  50.41146  55.13695
13        47.65039  54.38903         16.05336   2.210000  50.41146  55.13695  44.91555  54.92486  44.88932  53.64110  50.38523  53.85319
13        47.62416  53.10473         16.06675   2.210000  50.38523  53.85319  44.88932  53.64110  44.86309  52.35627  50.35900  52.56836
13        47.59792  51.81937         16.08014   2.210000  50.35900  52.56836  44.86309  52.35627  44.83685  51.07037  50.33276  51.28246
13        47.57167  50.53293         16.09355   2.210000  50.33276  51.28246  44.83685  51.07037  44.81058  49.78340  50.30649  49.99549
13        47.54538  49.24542         16.10697   2.210000  50.30649  49.99549  44.81058  49.78340  44.78427  48.49535  50.28018  48.70744
13        47.51905  47.95684         16.12039   2.210000  50.28018  48.70744  44.78427  48.49535  44.75791  47.20623  50.25382  47.41833
13        47.49266  46.66718         16.13383   2.210000  50.25382  47.41833  44.75791  47.20623  44.73149  45.91604  50.22740  46.12813
13        47.46620  45.37645         16.14728   2.210000  50.22740  46.12813  44.73149  45.91604  44.70499  44.62477  50.20090  44.83686
13        47.43965  44.08464         16.16074   2.210000  50.20090  44.83686  44.70499  44.62477  44.67839  43.33242  50.17430  43.54452
13        47.41300  42.79176         16.17422   2.210000  50.17430  43.54452  44.67839  43.33242  44.65169  42.03900  50.14760  42.25109
13        47.38624  41.49780         16.18770   2.210000  50.14760  42.25109  44.65169  42.03900  44.62486  40.74450  50.12077  40.95659
13        47.35935  40.20275         16.20120   2.210000  50.12077  40.95659  44.62486  40.74450  44.59790  39.44892  50.09381  39.66101
13        47.33232  38.90663         16.21470   2.210000  50.09381  39.66101  44.59790  39.44892  44.57080  38.15226  50.06671  38.36435
13        47.30514  37.60943         16.22822   2.210000  50.06671  38.36435  44.57080  38.15226  44.54353  36.85451  50.03944  37.06661
13        47.27778  36.31115         16.24175   2.210000  50.03944  37.06661  44.54353  36.85451  44.51608  35.55569  50.01199  35.76778
13        47.25024  35.01178         16.25529   2.210000  50.01199  35.76778  44.51608  35.55569  44.48845  34.25578  49.98435  34.46788
13        47.22250  33.71134         16.26884   2.210000  49.98435  34.46788  44.48845  34.25578  44.46060  32.95479  49.95651  33.16689
13        47.19455  32.40980         16.28241   2.210000  49.95651  33.16689  44.46060  32.95479  44.43254  31.65272  49.92845  31.86481
13        47.16638  31.10718         16.29598   2.210000  49.92845  31.86481  44.43254  31.65272  44.40425  30.34956  49.90016  30.56165
13        47.13796  29.80348         16.30957   2.210000  49.90016  30.56165  44.40425  30.34956  44.37570  29.04531  49.87161  29.25740
13        47.10929  28.49869         16.32316   2.210000  49.87161  29.25740  44.37570  29.04531  44.34690  27.73998  49.84281  27.95207
13        47.08034  27.19281         16.33677   2.210000  49.84281  27.95207  44.34690  27.73998  44.31781  26.43356  49.81372  26.64565
13        47.05112  25.88585         16.35039   2.210000  49.81372  26.64565  44.31781  26.43356  44.28844  25.12604  49.78435  25.33814
13        47.02159  24.57779         16.36402   2.210000  49.78435  25.33814  44.28844  25.12604  44.25876  23.81744  49.75467  24.02953
13        46.99175  23.26864         16.37766   2.210000  49.75467  24.02953  44.25876  23.81744  44.22875  22.50775  49.72466  22.71984
13        46.96158  21.95840         16.39132   2.210000  49.72466  22.71984  44.22875  22.50775  44.19841  21.19697  49.69432  21.40906
13        46.93106  20.64707         16.40498   2.210000  49.69432  21.40906  44.19841  21.19697  44.16772  19.88509  49.66363  20.09718
13        46.90019  19.33465         16.41866   2.210000  49.66363  20.09718  44.16772  19.88509  44.13666  18.57212  49.63257  18.78421
13        46.86894  18.02113         16.43235   2.210000  49.63257  18.78421  44.13666  18.57212  44.10522  17.25805  49.60113  17.47014
13        46.83731  16.70652         16.44605   2.210000  49.60113  17.47014  44.10522  17.25805  44.07339  15.94289  49.56929  16.15498
13        46.80526  15.39081         16.45976   2.210000  49.56929  16.15498  44.07339  15.94289  44.04114  14.62663  49.53705  14.83873
13        46.77280  14.07400         16.47348   2.210000  49.53705  14.83873  44.04114  14.62663  44.00846  13.30928  49.50437  13.52137
13        46.73991  12.75610         16.48721   2.210000  49.50437  13.52137  44.00846  13.30928  43.97534  11.99083  49.47125  12.20292
13        46.70656  11.43710         16.50096   2.210000  49.47125  12.20292  43.97534  11.99083  43.94176  10.67127  49.43767  10.88337
13        46.67275  10.11699         16.51471   2.210000  49.43767  10.88337  43.94176  10.67127  43.90771   9.35062  49.40362   9.56271
13        46.63846   8.79579         16.52848   2.210000  49.40362   9.56271  43.90771   9.35062  43.87317   8.02887  49.36908   8.24096
13        46.60367   7.47349         16.54226   2.210000  49.36908   8.24096  43.87317   8.02887  43.83813   6.70601  49.33404   6.91811
13        46.56836   6.15008         16.55605   2.210000  49.33404   6.91811  43.83813   6.70601  43.80256   5.38206  49.29847   5.59415
13        46.53253   4.82557         16.56986   2.210000  49.29847   5.59415  43.80256   5.38206  43.76646   4.05699  49.26237   4.26909
13        46.49615   3.49996         16.58367   2.210000  49.26237   4.26909  43.76646   4.05699  43.72980   2.73083  49.22571   2.94292
13        46.45921   2.17324         16.59750   2.210000  49.22571   2.94292  43.72980   2.73083  43.69258   1.40356  49.18849   1.61565
12        32.70380 127.37476         16.54226   3.560000  35.47775 128.15698  29.98836 127.81547  29.92996 126.59253  35.41935 126.93405
12        32.64558 126.15131         16.55605   3.560000  35.41935 126.93405  29.92996 126.59253  29.87191 125.36857  35.36130 125.71009
12        32.58770 124.92684         16.56986   3.560000  35.36130 125.71009  29.87191 125.36857  29.81421 124.14359  35.30360 124.48511
12        32.53018 123.70135         16.58367   3.560000  35.30360 124.48511  29.81421 124.14359  29.75685 122.91759  35.24624 123.25911
12        32.47299 122.47484         16.59750   3.560000  35.24624 123.25911  29.75685 122.91759  29.69984 121.69057  35.18923 122.03209
12        32.41615 121.24731         16.61133   3.560000  35.18923 122.03209  29.69984 121.69057  29.64316 120.46253  35.13255 120.80404
12        32.35964 120.01875         16.62518   3.560000  35.13255 120.80404  29.64316 120.46253  29.58682 119.23346  35.07621 119.57498
12        32.30347 118.78917         16.63904   3.560000  35.07621 119.57498  29.58682 119.23346  29.53082 118.00337  35.02020 118.34488
12        32.24762 117.55857         16.65291   3.560000  35.02020 118.34488  29.53082 118.00337  29.47514 116.77225  34.96452 117.11377
12        32.19210 116.32694         16.66680   3.560000  34.96452 117.11377  29.47514 116.77225  29.41978 115.54011  34.90917 115.88162
12        32.13691 115.09428         16.68069   3.560000  34.90917 115.88162  29.41978 115.54011  29.36475 114.30693  34.85413 114.64845
12        32.08204 113.86059         16.69460   3.560000  34.85413 114.64845  29.36475 114.30693  29.31003 113.07273  34.79942 113.41425
12        32.02748 112.62588         16.70851   3.560000  34.79942 113.41425  29.31003 113.07273  29.25563 111.83751  34.74502 112.17902
12        31.97324 111.39013         16.72244   3.560000  34.74502 112.17902  29.25563 111.83751  29.20154 110.60125  34.69093 110.94276
12        31.91930 110.15336         16.73639   3.560000  34.69093 110.94276  29.20154 110.60125  29.14776 109.36396  34.63715 109.70547
12        31.86568 108.91555         16.75034   3.560000  34.63715 109.70547  29.14776 109.36396  29.09429 108.12564  34.58368 108.46715
12        31.81235 107.67672         16.76430   3.560000  34.58368 108.46715  29.09429 108.12564  29.04111 106.88628  34.53050 107.22780
12        31.75933 106.43685         16.77828   3.560000  34.53050 107.22780  29.04111 106.88628  28.98824 105.64590  34.47763 105.98741
12        31.70660 105.19594         16.79227   3.560000  34.47763 105.98741  28.98824 105.64590  28.93566 104.40448  34.42504 104.74599
12        31.65416 103.95401         16.80627   3.560000  34.42504 104.74599  28.93566 104.40448  28.88336 103.16202  34.37275 103.50354
12        31.60201 102.71103         16.82028   3.560000  34.37275 103.50354  28.88336 103.16202  28.83136 101.91853  34.32075 102.26005
12        31.55015 101.46702         16.83430   3.560000  34.32075 102.26005  28.83136 101.91853  28.77964 100.67400  34.26903 101.01552
12        31.49857 100.22198         16.84833   3.560000  34.26903 101.01552  28.77964 100.67400  28.72820  99.42844  34.21758  99.76995
12        31.44727  98.97589         16.86238   3.560000  34.21758  99.76995  28.72820  99.42844  28.67703  98.18183  34.16642  98.52335
12        31.39624  97.72877         16.87644   3.560000  34.16642  98.52335  28.67703  98.18183  28.62614  96.93419  34.11553  97.27571
12        31.34548  96.48061         16.89051   3.560000  34.11553  97.27571  28.62614  96.93419  28.57552  95.68551  34.06490  96.02702
12        31.29499  95.23140         16.90459   3.560000  34.06490  96.02702  28.57552  95.68551  28.52516  94.43578  34.01455  94.77730
12        31.24477  93.98116         16.91868   3.560000  34.01455  94.77730  28.52516  94.43578  28.47506  93.18502  33.96445  93.52653
12        31.19480  92.72987         16.93279   3.560000  33.96445  93.52653  28.47506  93.18502  28.42522  91.93321  33.91461  92.27472
12        31.14509  91.47754         16.94690   3.560000  33.91461  92.27472  28.42522  91.93321  28.37564  90.68036  33.86502  91.02187
12        31.09563  90.22417         16.96103   3.560000  33.86502  91.02187  28.37564  90.68036  28.32630  89.42646  33.81569  89.76798
12        31.04642  88.96975         16.97517   3.560000  33.81569  89.76798  28.32630  89.42646  28.27722  88.17152  33.76660  88.51303
12        30.99745  87.71428         16.98932   3.560000  33.76660  88.51303  28.27722  88.17152  28.22837  86.91553  33.71776  87.25705
12        30.94873  86.45777         17.00349   3.560000  33.71776  87.25705  28.22837  86.91553  28.17976  85.65849  33.66915  86.00001
12        30.90024  85.20021         17.01766   3.560000  33.66915  86.00001  28.17976  85.65849  28.13139  84.40041  33.62078  84.74193
12        30.85198  83.94160         17.03185   3.560000  33.62078  84.74193  28.13139  84.40041  28.08325  83.14128  33.57264  83.48279
12        30.80396  82.68195         17.04605   3.560000  33.57264  83.48279  28.08325  83.14128  28.03534  81.88110  33.52473  82.22261
12        30.75616  81.42124         17.06026   3.560000  33.52473  82.22261  28.03534  81.88110  27.98765  80.61986  33.47704  80.96138
12        30.70858  80.15948         17.07448   3.560000  33.47704  80.96138  27.98765  80.61986  27.94018  79.35758  33.42957  79.69910
12        30.66121  78.89667         17.08872   3.560000  33.42957  79.69910  27.94018  79.35758  27.89293  78.09424  33.38231  78.43576
12        30.61407  77.63281         17.10296   3.560000  33.38231  78.43576  27.89293  78.09424  27.84588  76.82986  33.33527  77.17137
12        30.56713  76.36789         17.11722   3.560000  33.33527  77.17137  27.84588  76.82986  27.79905  75.56441  33.28843  75.90593
12        30.52039  75.10192         17.13149   3.560000  33.28843  75.90593  27.79905  75.56441  27.75241  74.29791  33.24180  74.63943
12        30.47386  73.83489         17.14578   3.560000  33.24180  74.63943  27.75241  74.29791  27.70598  73.03036  33.19537  73.37187
12        30.42753  72.56681         17.16007   3.560000  33.19537  73.37187  27.70598  73.03036  27.65974  71.76175  33.14913  72.10326
12        30.38138  71.29767         17.17438   3.560000  33.14913  72.10326  27.65974  71.76175  27.61370  70.49208  33.10308  70.83360
12        30.33543  70.02747         17.18869   3.560000  33.10308  70.83360  27.61370  70.49208  27.56784  69.22135  33.05722  69.56287
12        30.28967  68.75622         17.20302   3.560000  33.05722  69.56287  27.56784  69.22135  27.52216  67.94957  33.01155  68.29108
12        30.24408  67.48390         17.21736   3.560000  33.01155  68.29108  27.52216  67.94957  27.47666  66.67672  32.96605  67.01823
12        30.19867  66.21052         17.23172   3.560000  32.96605  67.01823  27.47666  66.67672  27.43134  65.40281  32.92073  65.74433
12        30.15343  64.93608         17.24608   3.560000  32.92073  65.74433  27.43134  65.40281  27.38619  64.12784  32.87557  64.46936
12        30.10836  63.66058         17.26046   3.560000  32.87557  64.46936  27.38619  64.12784  27.34120  62.85181  32.83059  63.19332
12        30.06346  62.38402         17.27485   3.560000  32.83059  63.19332  27.34120  62.85181  27.29638  61.57471  32.78576  61.91623
12        30.01871  61.10639         17.28925   3.560000  32.78576  61.91623  27.29638  61.57471  27.25171  60.29655  32.74110  60.63807
12        29.97412  59.82769         17.30367   3.560000  32.74110  60.63807  27.25171  60.29655  27.20720  59.01732  32.69658  59.35884
12        29.92969  58.54793         17.31809   3.560000  32.69658  59.35884  27.20720  59.01732  27.16283  57.73703  32.65222  58.07855
12        29.88539  57.26711         17.33253   3.560000  32.65222  58.07855  27.16283  57.73703  27.11861  56.45567  32.60800  56.79719
12        29.84125  55.98521         17.34698   3.560000  32.60800  56.79719  27.11861  56.45567  27.07453  55.17324  32.56392  55.51476
12        29.79724  54.70225         17.36144   3.560000  32.56392  55.51476  27.07453  55.17324  27.03059  53.88974  32.51998  54.23126
12        29.75336  53.41822         17.37592   3.560000  32.51998  54.23126  27.03059  53.88974  26.98678  52.60517  32.47617  52.94669
12        29.70961  52.13311         17.39040   3.560000  32.47617  52.94669  26.98678  52.60517  26.94310  51.31954  32.43248  51.66105
12        29.66599  50.84694         17.40490   3.560000  32.43248  51.66105  26.94310  51.31954  26.89953  50.03282  32.38892  50.37434
12        29.62249  49.55969         17.41941   3.560000  32.38892  50.37434  26.89953  50.03282  26.85609  48.74504  32.34548  49.08656
12        29.57910  48.27137         17.43393   3.560000  32.34548  49.08656  26.85609  48.74504  26.81276  47.45618  32.30215  47.79770
12        29.53583  46.98198         17.44847   3.560000  32.30215  47.79770  26.81276  47.45618  26.76954  46.16625  32.25893  46.50777
12        29.49266  45.69151         17.46301   3.560000  32.25893  46.50777  26.76954  46.16625  26.72642  44.87525  32.21581  45.21676
12        29.44959  44.39996         17.47757   3.560000  32.21581  45.21676  26.72642  44.87525  26.68341  43.58316  32.17280  43.92468
12        29.40663  43.10734         17.49214   3.560000  32.17280  43.92468  26.68341  43.58316  26.64049  42.29000  32.12988  42.63152
12        29.36375  41.81364         17.50673   3.560000  32.12988  42.63152  26.64049  42.29000  26.59766  40.99576  32.08705  41.33728
12        29.32097  40.51886         17.52132   3.560000  32.08705  41.33728  26.59766  40.99576  26.55492  39.70045  32.04430  40.04196
12        29.27826  39.22301         17.53593   3.560000  32.04430  40.04196  26.55492  39.70045  26.51225  38.40405  32.00164  38.74556
12        29.23564  37.92607         17.55055   3.560000  32.00164  38.74556  26.51225  38.40405  26.46967  37.10657  31.95906  37.44809
12        29.19309  36.62805         17.56518   3.560000  31.95906  37.44809  26.46967  37.10657  26.42716  35.80801  31.91654  36.14953
12        29.15062  35.32895         17.57982   3.560000  31.91654  36.14953  26.42716  35.80801  26.38471  34.50837  31.87410  34.84988
12        29.10820  34.02876         17.59448   3.560000  31.87410  34.84988  26.38471  34.50837  26.34233  33.20764  31.83172  33.54916
12        29.06585  32.72750         17.60915   3.560000  31.83172  33.54916  26.34233  33.20764  26.30000  31.90583  31.78939  32.24735
12        29.02355  31.42514         17.62383   3.560000  31.78939  32.24735  26.30000  31.90583  26.25773  30.60294  31.74712  30.94445
12        28.98130  30.12170         17.63852   3.560000  31.74712  30.94445  26.25773  30.60294  26.21551  29.29896  31.70490  29.64047
12        28.93910  28.81718         17.65322   3.560000  31.70490  29.64047  26.21551  29.29896  26.17333  27.99389  31.66272  28.33540
12        28.89694  27.51157         17.66794   3.560000  31.66272  28.33540  26.17333  27.99389  26.13119  26.68773  31.62057  27.02925
12        28.85482  26.20486         17.68267   3.560000  31.62057  27.02925  26.13119  26.68773  26.08908  25.38048  31.57847  25.72200
12        28.81272  24.89707         17.69741   3.560000  31.57847  25.72200  26.08908  25.38048  26.04700  24.07215  31.53639  24.41366
12        28.77066  23.58819         17.71217   3.560000  31.53639  24.41366  26.04700  24.07215  26.00494  22.76272  31.49433  23.10424
12        28.72861  22.27822         17.72693   3.560000  31.49433  23.10424  26.00494  22.76272  25.96291  21.45220  31.45229  21.79372
12        28.68658  20.96716         17.74171   3.560000  31.45229  21.79372  25.96291  21.45220  25.92088  20.14059  31.41027  20.48211
12        28.64456  19.65500         17.75650   3.560000  31.41027  20.48211  25.92088  20.14059  25.87887  18.82789  31.36825  19.16941
12        28.60255  18.34175         17.77131   3.560000  31.36825  19.16941  25.87887  18.82789  25.83685  17.51409  31.32624  17.85561
12        28.56054  17.02740         17.78612   3.560000  31.32624  17.85561  25.83685  17.51409  25.79484  16.19920  31.28423  16.54071
12        28.51852  15.71196         17.80095   3.560000  31.28423  16.54071  25.79484  16.19920  25.75282  14.88321  31.24221  15.22472
12        28.47650  14.39542         17.81579   3.560000  31.24221  15.22472  25.75282  14.88321  25.71079  13.56612  31.20018  13.90764
12        28.43446  13.07779         17.83064   3.560000  31.20018  13.90764  25.71079  13.56612  25.66874  12.24794  31.15813  12.58945
12        28.39240  11.75905         17.84551   3.560000  31.15813  12.58945  25.66874  12.24794  25.62667  10.92865  31.11606  11.27017
12        28.35031  10.43922         17.86038   3.560000  31.11606  11.27017  25.62667  10.92865  25.58457   9.60827  31.07396   9.94979
12        28.30820   9.11829         17.87527   3.560000  31.07396   9.94979  25.58457   9.60827  25.54244   8.28679  31.03183   8.62830
12        28.26605   7.79625         17.89018   3.560000  31.03183   8.62830  25.54244   8.28679  25.50027   6.96420  30.98966   7.30572
12        28.22386   6.47311         17.90509   3.560000  30.98966   7.30572  25.50027   6.96420  25.45806   5.64051  30.94744   5.98203
12        28.18162   5.14887         17.92002   3.560000  30.94744   5.98203  25.45806   5.64051  25.41580   4.31572  30.90518   4.65723
12        28.13933   3.82353         17.93496   3.560000  30.90518   4.65723  25.41580   4.31572  25.37348   2.98982  30.86287   3.33134
12        28.09699   2.49708         17.94991   3.560000  30.86287   3.33134  25.37348   2.98982  25.33111   1.66282  30.82049   2.00434
12        28.05458   1.16952         17.96487   3.560000  30.82049   2.00434  25.33111   1.66282  25.28867   0.33471  30.77805   0.67623
11        12.95225 127.96456         18.00600   6.000000  15.72190 128.86324  10.25203 128.28833  10.18267 127.06589  15.65254 127.64079
11        12.88300 126.74161         18.02101   6.000000  15.65254 127.64079  10.18267 127.06589  10.11353 125.84242  15.58340 126.41733
11        12.81397 125.51763         18.03604   6.000000  15.58340 126.41733  10.11353 125.84242  10.04461 124.61793  15.51448 125.19284
11        12.74516 124.29263         18.05107   6.000000  15.51448 125.19284  10.04461 124.61793   9.97590 123.39243  15.44577 123.96733
11        12.67656 123.06662         18.06612   6.000000  15.44577 123.96733   9.97590 123.39243   9.90741 122.16590  15.37728 122.74081
11        12.60817 121.83958         18.08118   6.000000  15.37728 122.74081   9.90741 122.16590   9.83913 120.93835  15.30900 121.51326
11        12.53999 120.61152         18.09626   6.000000  15.30900 121.51326   9.83913 120.93835   9.77106 119.70978  15.24093 120.28468
11        12.47203 119.38243         18.11134   6.000000  15.24093 120.28468   9.77106 119.70978   9.70320 118.48018  15.17307 119.05508
11        12.40428 118.15232         18.12644   6.000000  15.17307 119.05508   9.70320 118.48018   9.63555 117.24955  15.10542 117.82446
11        12.33673 116.92118         18.14155   6.000000  15.10542 117.82446   9.63555 117.24955   9.56810 116.01790  15.03797 116.59281
11        12.26939 115.68902         18.15668   6.000000  15.03797 116.59281   9.56810 116.01790   9.50086 114.78523  14.97073 115.36013
11        12.20225 114.45583         18.17181   6.000000  14.97073 115.36013   9.50086 114.78523   9.43383 113.55152  14.90370 114.12643
11        12.13531 113.22161         18.18696   6.000000  14.90370 114.12643   9.43383 113.55152   9.36699 112.31679  14.83686 112.89170
11        12.06858 111.98636         18.20213   6.000000  14.83686 112.89170   9.36699 112.31679   9.30036 111.08103  14.77023 111.65594
11        12.00205 110.75009         18.21730   6.000000  14.77023 111.65594   9.30036 111.08103   9.23393 109.84424  14.70380 110.41914
11        11.93571 109.51278         18.23249   6.000000  14.70380 110.41914   9.23393 109.84424   9.16769 108.60642  14.63756 109.18132
11        11.86958 108.27444         18.24769   6.000000  14.63756 109.18132   9.16769 108.60642   9.10165 107.36756  14.57152 107.94247
11        11.80363 107.03507         18.26290   6.000000  14.57152 107.94247   9.10165 107.36756   9.03580 106.12767  14.50568 106.70258
11        11.73788 105.79466         18.27813   6.000000  14.50568 106.70258   9.03580 106.12767   8.97015 104.88675  14.44002 105.46166
11        11.67232 104.55323         18.29336   6.000000  14.44002 105.46166   8.97015 104.88675   8.90469 103.64479  14.37456 104.21970
11        11.60696 103.31075         18.30861   6.000000  14.37456 104.21970   8.90469 103.64479   8.83942 102.40180  14.30929 102.97671
11        11.54178 102.06724         18.32388   6.000000  14.30929 102.97671   8.83942 102.40180   8.77433 101.15778  14.24420 101.73268
11        11.47679 100.82270         18.33915   6.000000  14.24420 101.73268   8.77433 101.15778   8.70943  99.91271  14.17930 100.48762
11        11.41198  99.57711         18.35444   6.000000  14.17930 100.48762   8.70943  99.91271   8.64472  98.66661  14.11459  99.24152
11        11.34736  98.33049         18.36975   6.000000  14.11459  99.24152   8.64472  98.66661   8.58019  97.41947  14.05006  97.99437
11        11.28292  97.08283         18.38506   6.000000  14.05006  97.99437   8.58019  97.41947   8.51584  96.17129  13.98571  96.74619
11        11.21866  95.83413         18.40039   6.000000  13.98571  96.74619   8.51584  96.17129   8.45167  94.92206  13.92154  95.49697
11        11.15458  94.58439         18.41573   6.000000  13.92154  95.49697   8.45167  94.92206   8.38767  93.67180  13.85755  94.24671
11        11.09067  93.33360         18.43108   6.000000  13.85755  94.24671   8.38767  93.67180   8.32386  92.42050  13.79373  92.99540
11        11.02694  92.08177         18.44645   6.000000  13.79373  92.99540   8.32386  92.42050   8.26022  91.16815  13.73009  91.74305
11        10.96339  90.82890         18.46182   6.000000  13.73009  91.74305   8.26022  91.16815   8.19675  89.91475  13.66662  90.48966
11        10.90001  89.57499         18.47722   6.000000  13.66662  90.48966   8.19675  89.91475   8.13345  88.66032  13.60332  89.23522
11        10.83679  88.32003         18.49262   6.000000  13.60332  89.23522   8.13345  88.66032   8.07032  87.40483  13.54019  87.97974
11        10.77375  87.06402         18.50804   6.000000  13.54019  87.97974   8.07032  87.40483   8.00736  86.14830  13.47723  86.72321
11        10.71087  85.80697         18.52347   6.000000  13.47723  86.72321   8.00736  86.14830   7.94457  84.89072  13.41444  85.46563
11        10.64816  84.54887         18.53891   6.000000  13.41444  85.46563   7.94457  84.89072   7.88194  83.63210  13.35181  84.20701
11        10.58561  83.28971         18.55436   6.000000  13.35181  84.20701   7.88194  83.63210   7.81947  82.37242  13.28934  82.94733
11        10.52322  82.02951         18.56983   6.000000  13.28934  82.94733   7.81947  82.37242   7.75716  81.11170  13.22703  81.68660
11        10.46099  80.76826         18.58531   6.000000  13.22703  81.68660   7.75716  81.11170   7.69501  79.84992  13.16488  80.42483
11        10.39892  79.50596         18.60081   6.000000  13.16488  80.42483   7.69501  79.84992   7.63302  78.58709  13.10289  79.16200
11        10.33701  78.24261         18.61632   6.000000  13.10289  79.16200   7.63302  78.58709   7.57118  77.32321  13.04105  77.89812
11        10.27525  76.97820         18.63184   6.000000  13.04105  77.89812   7.57118  77.32321   7.50950  76.05828  12.97937  76.63318
11        10.21364  75.71274         18.64737   6.000000  12.97937  76.63318   7.50950  76.05828   7.44796  74.79229  12.91783  75.36719
11        10.15218  74.44622         18.66291   6.000000  12.91783  75.36719   7.44796  74.79229   7.38658  73.52524  12.85645  74.10015
11        10.09087  73.17865         18.67847   6.000000  12.85645  74.10015   7.38658  73.52524   7.32535  72.25714  12.79522  72.83205
11        10.02971  71.91002         18.69405   6.000000  12.79522  72.83205   7.32535  72.25714   7.26426  70.98798  12.73413  71.56289
11         9.96869  70.64033         18.70963   6.000000  12.73413  71.56289   7.26426  70.98798   7.20331  69.71777  12.67318  70.29267
11         9.90782  69.36958         18.72523   6.000000  12.67318  70.29267   7.20331  69.71777   7.14251  68.44649  12.61238  69.02140
11         9.84709  68.09778         18.74084   6.000000  12.61238  69.02140   7.14251  68.44649   7.08184  67.17416  12.55171  67.74906
11         9.78649  66.82491         18.75646   6.000000  12.55171  67.74906   7.08184  67.17416   7.02132  65.90076  12.49119  66.47567
11         9.72604  65.55098         18.77210   6.000000  12.49119  66.47567   7.02132  65.90076   6.96093  64.62630  12.43080  65.20121
11         9.66572  64.27600         18.78775   6.000000  12.43080  65.20121   6.96093  64.62630   6.90068  63.35078  12.37055  63.92569
11         9.60553  62.99994         18.80341   6.000000  12.37055  63.92569   6.90068  63.35078   6.84055  62.07420  12.31042  62.64911
11         9.54547  61.72283         18.81909   6.000000  12.31042  62.64911   6.84055  62.07420   6.78056  60.79655  12.25043  61.37146
11         9.48555  60.44465         18.83478   6.000000  12.25043  61.37146   6.78056  60.79655   6.72070  59.51784  12.19057  60.09275
11         9.42575  59.16540         18.85048   6.000000  12.19057  60.09275   6.72070  59.51784   6.66096  58.23806  12.13084  58.81297
11         9.36607  57.88509         18.86620   6.000000  12.13084  58.81297   6.66096  58.23806   6.60135  56.95721  12.07122  57.53212
11         9.30652  56.60371         18.88192   6.000000  12.07122  57.53212   6.60135  56.95721   6.54186  55.67530  12.01173  56.25021
11         9.24709  55.32126         18.89767   6.000000  12.01173  56.25021   6.54186  55.67530   6.48250  54.39232  11.95237  54.96722
11         9.18779  54.03775         18.91342   6.000000  11.95237  54.96722   6.48250  54.39232   6.42325  53.10827  11.89312  53.68317
11         9.12859  52.75316         18.92919   6.000000  11.89312  53.68317   6.42325  53.10827   6.36411  51.82314  11.83398  52.39805
11         9.06952  51.46750         18.94497   6.000000  11.83398  52.39805   6.36411  51.82314   6.30509  50.53695  11.77496  51.11186
11         9.01056  50.18077         18.96076   6.000000  11.77496  51.11186   6.30509  50.53695   6.24619  49.24968  11.71606  49.82459
11         8.95170  48.89297         18.97657   6.000000  11.71606  49.82459   6.24619  49.24968   6.18739  47.96135  11.65726  48.53625
11         8.89296  47.60409         18.99239   6.000000  11.65726  48.53625   6.18739  47.96135   6.12870  46.67193  11.59857  47.24684
11         8.83433  46.31414         19.00822   6.000000  11.59857  47.24684   6.12870  46.67193   6.07012  45.38144  11.53999  45.95635
11         8.77580  45.02312         19.02407   6.000000  11.53999  45.95635   6.07012  45.38144   6.01164  44.08988  11.48151  44.66479
11         8.71737  43.73101         19.03993   6.000000  11.48151  44.66479   6.01164  44.08988   5.95327  42.79724  11.42314  43.37215
11         8.65905  42.43783         19.05580   6.000000  11.42314  43.37215   5.95327  42.79724   5.89499  41.50352  11.36486  42.07843
11         8.60082  41.14358         19.07169   6.000000  11.36486  42.07843   5.89499  41.50352   5.83681  40.20872  11.30668  40.78363
11         8.54269  39.84824         19.08759   6.000000  11.30668  40.78363   5.83681  40.20872   5.77873  38.91285  11.24860  39.48775
11         8.48465  38.55182         19.10350   6.000000  11.24860  39.48775   5.77873  38.91285   5.72074  37.61589  11.19061  38.19080
11         8.42671  37.25433         19.11943   6.000000  11.19061  38.19080   5.72074  37.61589   5.66284  36.31785  11.13271  36.89276
11         8.36886  35.95575         19.13537   6.000000  11.13271  36.89276   5.66284  36.31785   5.60503  35.01873  11.07491  35.59364
11         8.31109  34.65609         19.15132   6.000000  11.07491  35.59364   5.60503  35.01873   5.54731  33.71853  11.01718  34.29344
11         8.25341  33.35534         19.16729   6.000000  11.01718  34.29344   5.54731  33.71853   5.48967  32.41724  10.95955  32.99215
11         8.19582  32.05351         19.18327   6.000000  10.95955  32.99215   5.48967  32.41724   5.43212  31.11487  10.90199  31.68978
11         8.13830  30.75060         19.19926   6.000000  10.90199  31.68978   5.43212  31.11487   5.37464  29.81141  10.84451  30.38632
11         8.08087  29.44660         19.21527   6.000000  10.84451  30.38632   5.37464  29.81141   5.31725  28.50687  10.78712  29.08178
11         8.02351  28.14151         19.23128   6.000000  10.78712  29.08178   5.31725  28.50687   5.25993  27.20124  10.72980  27.77614
11         7.96622  26.83533         19.24732   6.000000  10.72980  27.77614   5.25993  27.20124   5.20268  25.89452  10.67255  26.46942
11         7.90901  25.52807         19.26336   6.000000  10.67255  26.46942   5.20268  25.89452   5.14550  24.58671  10.61537  25.16161
11         7.85187  24.21971         19.27942   6.000000  10.61537  25.16161   5.14550  24.58671   5.08839  23.27781  10.55826  23.85272
11         7.79479  22.91027         19.29550   6.000000  10.55826  23.85272   5.08839  23.27781   5.03135  21.96782  10.50122  22.54272
11         7.73778  21.59973         19.31158   6.000000  10.50122  22.54272   5.03135  21.96782   4.97437  20.65673  10.44424  21.23164
11         7.68084  20.28810         19.32768   6.000000  10.44424  21.23164   4.97437  20.65673   4.91746  19.34456  10.38733  19.91946
11         7.62395  18.97538         19.34380   6.000000  10.38733  19.91946   4.91746  19.34456   4.86060  18.03129  10.33047  18.60619
11         7.56712  17.66156         19.35992   6.000000  10.33047  18.60619   4.86060  18.03129   4.80380  16.71692  10.27367  17.29183
11         7.51035  16.34665         19.37606   6.000000  10.27367  17.29183   4.80380  16.71692   4.74706  15.40146  10.21693  15.97637
11         7.45363  15.03064         19.39222   6.000000  10.21693  15.97637   4.74706  15.40146   4.69036  14.08490  10.16024  14.65981
11         7.39697  13.71353         19.40838   6.000000  10.16024  14.65981   4.69036  14.08490   4.63372  12.76725  10.10359  13.34216
11         7.34035  12.39533         19.42456   6.000000  10.10359  13.34216   4.63372  12.76725   4.57713  11.44850  10.04700  12.02340
11         7.28378  11.07602         19.44076   6.000000  10.04700  12.02340   4.57713  11.44850   4.52058  10.12864   9.99045  10.70355
11         7.22725   9.75562         19.45696   6.000000   9.99045  10.70355   4.52058  10.12864   4.46407   8.80769   9.93394   9.38260
11         7.17076   8.43412         19.47318   6.000000   9.93394   9.38260   4.46407   8.80769   4.40761   7.48564   9.87748   8.06054
11         7.11432   7.11151         19.48942   6.000000   9.87748   8.06054   4.40761   7.48564   4.35118   6.16248   9.82105   6.73739
11         7.05791   5.78780         19.50567   6.000000   9.82105   6.73739   4.35118   6.16248   4.29479   4.83822   9.76466   5.41313
11         7.00153   4.46299         19.52193   6.000000   9.76466   5.41313   4.29479   4.83822   4.23843   3.51286   9.70830   4.08776
11         6.94519   3.13707         19.53820   6.000000   9.70830   4.08776   4.23843   3.51286   4.18210   2.18639   9.65197   2.76129
11         6.88887   1.81005         19.55449   6.000000   9.65197   2.76129   4.18210   2.18639   4.12580   0.85881   9.59567   1.43372
