\wavsamp version 5.0 (Thu May  9 10:19:35 PDT 2002)
\processing time 15:28:41 PST 05/24/2004
\character channelID = 1
| order |x_center |y_center |   wavelength   |  angle   |   x0    |   y0    |   x1    |   y1    |   x2    |   y2    |   x3    |   y3    |
| int   |  real   |  real   |    real        |   real   |  real   |  real   |  real   |  real   |  real   |  real   |  real   |  real   |
      20 120.64713 128.00022          9.89273   6.481150 122.97469 128.75873 118.29645 128.22727 118.31956 127.24172 122.99780 127.77318
      20 120.67025 127.01429          9.90034   6.481150 122.99780 127.77318 118.31956 127.24172 118.34270 126.25541 123.02094 126.78687
      20 120.69339 126.02761          9.90796   6.481150 123.02094 126.78687 118.34270 126.25541 118.36585 125.26834 123.04409 125.79980
      20 120.71655 125.04016          9.91559   6.481150 123.04409 125.79980 118.36585 125.26834 118.38901 124.28052 123.06726 124.81198
      20 120.73973 124.05195          9.92322   6.481150 123.06726 124.81198 118.38901 124.28052 118.41220 123.29193 123.09044 123.82339
      20 120.76293 123.06298          9.93085   6.481150 123.09044 123.82339 118.41220 123.29193 118.43541 122.30258 123.11365 122.83404
      20 120.78614 122.07326          9.93849   6.481150 123.11365 122.83404 118.43541 122.30258 118.45863 121.31247 123.13687 121.84393
      20 120.80937 121.08277          9.94614   6.481150 123.13687 121.84393 118.45863 121.31247 118.48187 120.32160 123.16011 120.85306
      20 120.83262 120.09151          9.95380   6.481150 123.16011 120.85306 118.48187 120.32160 118.50513 119.32997 123.18337 119.86143
      20 120.85589 119.09950          9.96146   6.481150 123.18337 119.86143 118.50513 119.32997 118.52840 118.33757 123.20665 118.86903
      20 120.87917 118.10672          9.96912   6.481150 123.20665 118.86903 118.52840 118.33757 118.55170 117.34441 123.22994 117.87587
      20 120.90247 117.11318          9.97679   6.481150 123.22994 117.87587 118.55170 117.34441 118.57501 116.35049 123.25325 116.88195
      20 120.92579 116.11887          9.98447   6.481150 123.25325 116.88195 118.57501 116.35049 118.59834 115.35580 123.27658 115.88726
      20 120.94913 115.12380          9.99215   6.481150 123.27658 115.88726 118.59834 115.35580 118.62169 114.36034 123.29993 114.89180
      20 120.97249 114.12796          9.99984   6.481150 123.29993 114.89180 118.62169 114.36034 118.64505 113.36412 123.32329 113.89558
      20 120.99586 113.13136         10.00754   6.481150 123.32329 113.89558 118.64505 113.36412 118.66844 112.36713 123.34668 112.89859
      20 121.01926 112.13399         10.01524   6.481150 123.34668 112.89859 118.66844 112.36713 118.69184 111.36938 123.37008 111.90084
      20 121.04267 111.13585         10.02295   6.481150 123.37008 111.90084 118.69184 111.36938 118.71526 110.37086 123.39350 110.90232
      20 121.06610 110.13694         10.03066   6.481150 123.39350 110.90232 118.71526 110.37086 118.73869 109.37157 123.41694 109.90302
      20 121.08954 109.13727         10.03838   6.481150 123.41694 109.90302 118.73869 109.37157 118.76215 108.37151 123.44039 108.90296
      20 121.11301 108.13682         10.04610   6.481150 123.44039 108.90296 118.76215 108.37151 118.78562 107.37068 123.46387 107.90214
      20 121.13649 107.13561         10.05383   6.481150 123.46387 107.90214 118.78562 107.37068 118.80912 106.36908 123.48736 106.90054
      20 121.15999 106.13362         10.06157   6.481150 123.48736 106.90054 118.80912 106.36908 118.83263 105.36671 123.51087 105.89817
      20 121.18351 105.13086         10.06931   6.481150 123.51087 105.89817 118.83263 105.36671 118.85615 104.36356 123.53440 104.89502
      20 121.20705 104.12734         10.07706   6.481150 123.53440 104.89502 118.85615 104.36356 118.87970 103.35965 123.55794 103.89111
      20 121.23060 103.12304         10.08482   6.481150 123.55794 103.89111 118.87970 103.35965 118.90326 102.35496 123.58151 102.88642
      20 121.25418 102.11796         10.09258   6.481150 123.58151 102.88642 118.90326 102.35496 118.92685 101.34951 123.60509 101.88096
      20 121.27777 101.11212         10.10034   6.481150 123.60509 101.88096 118.92685 101.34951 118.95045 100.34327 123.62869 100.87473
      20 121.30138 100.10550         10.10812   6.481150 123.62869 100.87473 118.95045 100.34327 118.97407  99.33626 123.65231  99.86772
      20 121.32501  99.09810         10.11589   6.481150 123.65231  99.86772 118.97407  99.33626 118.99770  98.32848 123.67594  98.85994
      20 121.34865  98.08993         10.12368   6.481150 123.67594  98.85994 118.99770  98.32848 119.02136  97.31992 123.69960  97.85138
      20 121.37232  97.08099         10.13147   6.481150 123.69960  97.85138 119.02136  97.31992 119.04503  96.31059 123.72327  96.84205
      20 121.39600  96.07126         10.13927   6.481150 123.72327  96.84205 119.04503  96.31059 119.06872  95.30048 123.74696  95.83194
      20 121.41970  95.06077         10.14707   6.481150 123.74696  95.83194 119.06872  95.30048 119.09243  94.28959 123.77067  94.82105
      20 121.44342  94.04949         10.15488   6.481150 123.77067  94.82105 119.09243  94.28959 119.11616  93.27793 123.79440  93.80939
      20 121.46715  93.03743         10.16269   6.481150 123.79440  93.80939 119.11616  93.27793 119.13991  92.26548 123.81815  92.79694
      20 121.49091  92.02460         10.17051   6.481150 123.81815  92.79694 119.13991  92.26548 119.16367  91.25226 123.84191  91.78372
      20 121.51468  91.01099         10.17834   6.481150 123.84191  91.78372 119.16367  91.25226 119.18745  90.23826 123.86570  90.76971
      20 121.53847  89.99659         10.18617   6.481150 123.86570  90.76971 119.18745  90.23826 119.21125  89.22347 123.88950  89.75493
      20 121.56229  88.98142         10.19401   6.481150 123.88950  89.75493 119.21125  89.22347 119.23507  88.20791 123.91332  88.73937
      20 121.58611  87.96546         10.20185   6.481150 123.91332  88.73937 119.23507  88.20791 119.25891  87.19156 123.93715  87.72302
      20 121.60996  86.94873         10.20970   6.481150 123.93715  87.72302 119.25891  87.19156 119.28277  86.17443 123.96101  86.70589
      20 121.63383  85.93121         10.21756   6.481150 123.96101  86.70589 119.28277  86.17443 119.30664  85.15652 123.98488  85.68798
      20 121.65771  84.91291         10.22542   6.481150 123.98488  85.68798 119.30664  85.15652 119.33053  84.13783 124.00878  84.66929
      20 121.68161  83.89382         10.23329   6.481150 124.00878  84.66929 119.33053  84.13783 119.35445  83.11835 124.03269  83.64981
      20 121.70553  82.87395         10.24117   6.481150 124.03269  83.64981 119.35445  83.11835 119.37838  82.09809 124.05662  82.62955
      20 121.72947  81.85329         10.24905   6.481150 124.05662  82.62955 119.37838  82.09809 119.40232  81.07704 124.08057  81.60850
      20 121.75343  80.83185         10.25693   6.481150 124.08057  81.60850 119.40232  81.07704 119.42629  80.05521 124.10453  80.58667
      20 121.77740  79.80963         10.26483   6.481150 124.10453  80.58667 119.42629  80.05521 119.45027  79.03259 124.12852  79.56405
      20 121.80140  78.78661         10.27273   6.481150 124.12852  79.56405 119.45027  79.03259 119.47428  78.00918 124.15252  78.54064
      20 121.82541  77.76281         10.28063   6.481150 124.15252  78.54064 119.47428  78.00918 119.49830  76.98499 124.17654  77.51645
      20 121.84944  76.73823         10.28854   6.481150 124.17654  77.51645 119.49830  76.98499 119.52234  75.96001 124.20058  76.49146
      20 121.87349  75.71285         10.29646   6.481150 124.20058  76.49146 119.52234  75.96001 119.54640  74.93423 124.22464  75.46569
      20 121.89756  74.68668         10.30438   6.481150 124.22464  75.46569 119.54640  74.93423 119.57048  73.90767 124.24872  74.43913
      20 121.92164  73.65973         10.31231   6.481150 124.24872  74.43913 119.57048  73.90767 119.59457  72.88032 124.27281  73.41178
      20 121.94575  72.63198         10.32025   6.481150 124.27281  73.41178 119.59457  72.88032 119.61869  71.85218 124.29693  72.38364
      20 121.96987  71.60345         10.32819   6.481150 124.29693  72.38364 119.61869  71.85218 119.64282  70.82325 124.32106  71.35471
      20 121.99402  70.57412         10.33614   6.481150 124.32106  71.35471 119.64282  70.82325 119.66697  69.79353 124.34521  70.32499
      20 122.01818  69.54400         10.34409   6.481150 124.34521  70.32499 119.66697  69.79353 119.69114  68.76301 124.36938  69.29447
      20 122.04236  68.51309         10.35205   6.481150 124.36938  69.29447 119.69114  68.76301 119.71533  67.73170 124.39357  68.26316
      20 122.06655  67.48138         10.36002   6.481150 124.39357  68.26316 119.71533  67.73170 119.73954  66.69960 124.41778  67.23106
      20 122.09077  66.44888         10.36799   6.481150 124.41778  67.23106 119.73954  66.69960 119.76376  65.66670 124.44200  66.19816
      20 122.11501  65.41559         10.37597   6.481150 124.44200  66.19816 119.76376  65.66670 119.78801  64.63301 124.46625  65.16447
      20 122.13926  64.38150         10.38395   6.481150 124.46625  65.16447 119.78801  64.63301 119.81227  63.59852 124.49051  64.12998
      20 122.16353  63.34661         10.39194   6.481150 124.49051  64.12998 119.81227  63.59852 119.83655  62.56324 124.51479  63.09470
      20 122.18782  62.31093         10.39994   6.481150 124.51479  63.09470 119.83655  62.56324 119.86085  61.52716 124.53909  62.05862
      20 122.21213  61.27445         10.40794   6.481150 124.53909  62.05862 119.86085  61.52716 119.88517  60.49028 124.56341  61.02174
      20 122.23646  60.23717         10.41595   6.481150 124.56341  61.02174 119.88517  60.49028 119.90951  59.45261 124.58775  59.98407
      20 122.26081  59.19910         10.42397   6.481150 124.58775  59.98407 119.90951  59.45261 119.93387  58.41413 124.61211  58.94559
      20 122.28518  58.16023         10.43199   6.481150 124.61211  58.94559 119.93387  58.41413 119.95824  57.37486 124.63648  57.90632
      20 122.30956  57.12055         10.44002   6.481150 124.63648  57.90632 119.95824  57.37486 119.98264  56.33479 124.66088  56.86625
      20 122.33396  56.08008         10.44805   6.481150 124.66088  56.86625 119.98264  56.33479 120.00705  55.29391 124.68529  55.82537
      20 122.35839  55.03881         10.45609   6.481150 124.68529  55.82537 120.00705  55.29391 120.03148  54.25224 124.70972  54.78370
      20 122.38283  53.99673         10.46414   6.481150 124.70972  54.78370 120.03148  54.25224 120.05593  53.20976 124.73417  53.74122
      20 122.40729  52.95385         10.47219   6.481150 124.73417  53.74122 120.05593  53.20976 120.08040  52.16649 124.75864  52.69794
      20 122.43177  51.91017         10.48025   6.481150 124.75864  52.69794 120.08040  52.16649 120.10489  51.12240 124.78313  51.65386
      20 122.45626  50.86569         10.48831   6.481150 124.78313  51.65386 120.10489  51.12240 120.12940  50.07752 124.80764  50.60898
      20 122.48078  49.82041         10.49639   6.481150 124.80764  50.60898 120.12940  50.07752 120.15392  49.03183 124.83216  49.56329
      20 122.50532  48.77432         10.50446   6.481150 124.83216  49.56329 120.15392  49.03183 120.17847  47.98534 124.85671  48.51680
      20 122.52987  47.72742         10.51255   6.481150 124.85671  48.51680 120.17847  47.98534 120.20303  46.93804 124.88127  47.46950
      20 122.55444  46.67972         10.52064   6.481150 124.88127  47.46950 120.20303  46.93804 120.22761  45.88994 124.90586  46.42140
      20 122.57903  45.63121         10.52873   6.481150 124.90586  46.42140 120.22761  45.88994 120.25221  44.84103 124.93046  45.37249
      20 122.60365  44.58190         10.53683   6.481150 124.93046  45.37249 120.25221  44.84103 120.27683  43.79131 124.95508  44.32277
      20 122.62828  43.53178         10.54494   6.481150 124.95508  44.32277 120.27683  43.79131 120.30147  42.74078 124.97972  43.27224
      20 122.65292  42.48085         10.55306   6.481150 124.97972  43.27224 120.30147  42.74078 120.32613  41.68945 125.00437  42.22091
      20 122.67759  41.42911         10.56118   6.481150 125.00437  42.22091 120.32613  41.68945 120.35081  40.63731 125.02905  41.16877
      20 122.70228  40.37656         10.56930   6.481150 125.02905  41.16877 120.35081  40.63731 120.37551  39.58435 125.05375  40.11581
      20 122.72698  39.32320         10.57744   6.481150 125.05375  40.11581 120.37551  39.58435 120.40022  38.53059 125.07846  39.06205
      20 122.75171  38.26903         10.58558   6.481150 125.07846  39.06205 120.40022  38.53059 120.42496  37.47602 125.10320  38.00748
      20 122.77645  37.21405         10.59372   6.481150 125.10320  38.00748 120.42496  37.47602 120.44971  36.42063 125.12795  36.95209
      20 122.80122  36.15826         10.60188   6.481150 125.12795  36.95209 120.44971  36.42063 120.47448  35.36443 125.15272  35.89589
      20 122.82600  35.10166         10.61003   6.481150 125.15272  35.89589 120.47448  35.36443 120.49927  34.30742 125.17752  34.83888
      20 122.85080  34.04424         10.61820   6.481150 125.17752  34.83888 120.49927  34.30742 120.52408  33.24960 125.20233  33.78106
      20 122.87562  32.98601         10.62637   6.481150 125.20233  33.78106 120.52408  33.24960 120.54891  32.19096 125.22716  32.72242
      20 122.90046  31.92696         10.63455   6.481150 125.22716  32.72242 120.54891  32.19096 120.57376  31.13151 125.25200  31.66297
      20 122.92532  30.86710         10.64273   6.481150 125.25200  31.66297 120.57376  31.13151 120.59863  30.07124 125.27687  30.60270
      20 122.95019  29.80643         10.65092   6.481150 125.27687  30.60270 120.59863  30.07124 120.62352  29.01016 125.30176  29.54162
      19 113.51529 127.54015         10.38395   6.669800 115.84473 128.28287 111.16827 127.73601 111.18585 126.79742 115.86231 127.34428
      19 113.53288 126.60120         10.39194   6.669800 115.86231 127.34428 111.18585 126.79742 111.20344 125.85811 115.87991 126.40497
      19 113.55048 125.66153         10.39994   6.669800 115.87991 126.40497 111.20344 125.85811 111.22105 124.91808 115.89752 125.46494
      19 113.56809 124.72113         10.40794   6.669800 115.89752 125.46494 111.22105 124.91808 111.23867 123.97733 115.91514 124.52418
      19 113.58572 123.78002         10.41595   6.669800 115.91514 124.52418 111.23867 123.97733 111.25631 123.03585 115.93277 123.58271
      19 113.60336 122.83817         10.42397   6.669800 115.93277 123.58271 111.25631 123.03585 111.27395 122.09364 115.95042 122.64050
      19 113.62102 121.89561         10.43199   6.669800 115.95042 122.64050 111.27395 122.09364 111.29162 121.15071 115.96808 121.69757
      19 113.63869 120.95231         10.44002   6.669800 115.96808 121.69757 111.29162 121.15071 111.30929 120.20706 115.98576 120.75392
      19 113.65637 120.00830         10.44805   6.669800 115.98576 120.75392 111.30929 120.20706 111.32698 119.26268 116.00345 119.80954
      19 113.67407 119.06355         10.45609   6.669800 116.00345 119.80954 111.32698 119.26268 111.34469 118.31757 116.02115 118.86443
      19 113.69178 118.11808         10.46414   6.669800 116.02115 118.86443 111.34469 118.31757 111.36240 117.37173 116.03887 117.91859
      19 113.70950 117.17188         10.47219   6.669800 116.03887 117.91859 111.36240 117.37173 111.38013 116.42517 116.05660 116.97203
      19 113.72724 116.22495         10.48025   6.669800 116.05660 116.97203 111.38013 116.42517 111.39788 115.47788 116.07434 116.02474
      19 113.74499 115.27730         10.48831   6.669800 116.07434 116.02474 111.39788 115.47788 111.41563 114.52986 116.09210 115.07672
      19 113.76275 114.32891         10.49639   6.669800 116.09210 115.07672 111.41563 114.52986 111.43341 113.58111 116.10987 114.12797
      19 113.78053 113.37980         10.50446   6.669800 116.10987 114.12797 111.43341 113.58111 111.45119 112.63163 116.12766 113.17849
      19 113.79832 112.42995         10.51255   6.669800 116.12766 113.17849 111.45119 112.63163 111.46899 111.68142 116.14546 112.22828
      19 113.81613 111.47938         10.52064   6.669800 116.14546 112.22828 111.46899 111.68142 111.48680 110.73048 116.16327 111.27734
      19 113.83395 110.52807         10.52873   6.669800 116.16327 111.27734 111.48680 110.73048 111.50463 109.77880 116.18109 110.32566
      19 113.85178 109.57603         10.53683   6.669800 116.18109 110.32566 111.50463 109.77880 111.52247 108.82640 116.19893 109.37326
      19 113.86963 108.62326         10.54494   6.669800 116.19893 109.37326 111.52247 108.82640 111.54032 107.87326 116.21679 108.42012
      19 113.88749 107.66975         10.55306   6.669800 116.21679 108.42012 111.54032 107.87326 111.55819 106.91939 116.23465 107.46625
      19 113.90536 106.71551         10.56118   6.669800 116.23465 107.46625 111.55819 106.91939 111.57607 105.96478 116.25254 106.51164
      19 113.92325 105.76054         10.56930   6.669800 116.25254 106.51164 111.57607 105.96478 111.59396 105.00944 116.27043 105.55630
      19 113.94115 104.80483         10.57744   6.669800 116.27043 105.55630 111.59396 105.00944 111.61187 104.05336 116.28834 104.60022
      19 113.95907 103.84839         10.58558   6.669800 116.28834 104.60022 111.61187 104.05336 111.62979 103.09655 116.30626 103.64341
      19 113.97700 102.89121         10.59372   6.669800 116.30626 103.64341 111.62979 103.09655 111.64773 102.13900 116.32420 102.68586
      19 113.99494 101.93329         10.60188   6.669800 116.32420 102.68586 111.64773 102.13900 111.66568 101.18072 116.34215 101.72758
      19 114.01290 100.97464         10.61003   6.669800 116.34215 101.72758 111.66568 101.18072 111.68364 100.22170 116.36011 100.76856
      19 114.03087 100.01525         10.61820   6.669800 116.36011 100.76856 111.68364 100.22170 111.70162  99.26194 116.37809  99.80880
      19 114.04885  99.05512         10.62637   6.669800 116.37809  99.80880 111.70162  99.26194 111.71961  98.30144 116.39608  98.84830
      19 114.06685  98.09425         10.63455   6.669800 116.39608  98.84830 111.71961  98.30144 111.73762  97.34020 116.41409  97.88706
      19 114.08486  97.13264         10.64273   6.669800 116.41409  97.88706 111.73762  97.34020 111.75564  96.37822 116.43210  96.92508
      19 114.10289  96.17029         10.65092   6.669800 116.43210  96.92508 111.75564  96.37822 111.77367  95.41550 116.45014  95.96236
      19 114.12093  95.20721         10.65912   6.669800 116.45014  95.96236 111.77367  95.41550 111.79172  94.45205 116.46818  94.99891
      19 114.13898  94.24338         10.66732   6.669800 116.46818  94.99891 111.79172  94.45205 111.80978  93.48785 116.48624  94.03471
      19 114.15705  93.27880         10.67553   6.669800 116.48624  94.03471 111.80978  93.48785 111.82785  92.52290 116.50432  93.06976
      19 114.17513  92.31349         10.68374   6.669800 116.50432  93.06976 111.82785  92.52290 111.84594  91.55722 116.52241  92.10408
      19 114.19323  91.34743         10.69196   6.669800 116.52241  92.10408 111.84594  91.55722 111.86404  90.59079 116.54051  91.13765
      19 114.21133  90.38064         10.70019   6.669800 116.54051  91.13765 111.86404  90.59079 111.88216  89.62362 116.55863  90.17048
      19 114.22946  89.41309         10.70843   6.669800 116.55863  90.17048 111.88216  89.62362 111.90029  88.65570 116.57676  89.20256
      19 114.24760  88.44480         10.71667   6.669800 116.57676  89.20256 111.90029  88.65570 111.91843  87.68704 116.59490  88.23390
      19 114.26575  87.47577         10.72491   6.669800 116.59490  88.23390 111.91843  87.68704 111.93659  86.71764 116.61306  87.26450
      19 114.28391  86.50599         10.73317   6.669800 116.61306  87.26450 111.93659  86.71764 111.95476  85.74748 116.63123  86.29434
      19 114.30209  85.53547         10.74143   6.669800 116.63123  86.29434 111.95476  85.74748 111.97295  84.77659 116.64942  85.32345
      19 114.32028  84.56419         10.74969   6.669800 116.64942  85.32345 111.97295  84.77659 111.99115  83.80494 116.66762  84.35180
      19 114.33849  83.59217         10.75796   6.669800 116.66762  84.35180 111.99115  83.80494 112.00936  82.83255 116.68583  83.37941
      19 114.35671  82.61941         10.76624   6.669800 116.68583  83.37941 112.00936  82.83255 112.02759  81.85941 116.70406  82.40627
      19 114.37495  81.64589         10.77453   6.669800 116.70406  82.40627 112.02759  81.85941 112.04583  80.88552 116.72230  81.43237
      19 114.39320  80.67163         10.78282   6.669800 116.72230  81.43237 112.04583  80.88552 112.06409  79.91088 116.74056  80.45773
      19 114.41146  79.69661         10.79112   6.669800 116.74056  80.45773 112.06409  79.91088 112.08236  78.93549 116.75883  79.48234
      19 114.42974  78.72084         10.79942   6.669800 116.75883  79.48234 112.08236  78.93549 112.10065  77.95934 116.77711  78.50620
      19 114.44803  77.74433         10.80773   6.669800 116.77711  78.50620 112.10065  77.95934 112.11894  76.98245 116.79541  77.52931
      19 114.46633  76.76706         10.81605   6.669800 116.79541  77.52931 112.11894  76.98245 112.13726  76.00481 116.81372  76.55167
      19 114.48465  75.78904         10.82437   6.669800 116.81372  76.55167 112.13726  76.00481 112.15558  75.02641 116.83205  75.57327
      19 114.50299  74.81027         10.83270   6.669800 116.83205  75.57327 112.15558  75.02641 112.17392  74.04726 116.85039  74.59412
      19 114.52133  73.83074         10.84104   6.669800 116.85039  74.59412 112.17392  74.04726 112.19228  73.06736 116.86875  73.61422
      19 114.53970  72.85046         10.84938   6.669800 116.86875  73.61422 112.19228  73.06736 112.21065  72.08671 116.88711  72.63357
      19 114.55807  71.86943         10.85773   6.669800 116.88711  72.63357 112.21065  72.08671 112.22903  71.10530 116.90550  71.65216
      19 114.57646  70.88764         10.86608   6.669800 116.90550  71.65216 112.22903  71.10530 112.24743  70.12313 116.92389  70.66999
      19 114.59487  69.90510         10.87444   6.669800 116.92389  70.66999 112.24743  70.12313 112.26584  69.14021 116.94231  69.68707
      19 114.61329  68.92180         10.88281   6.669800 116.94231  69.68707 112.26584  69.14021 112.28426  68.15653 116.96073  68.70339
      19 114.63172  67.93774         10.89119   6.669800 116.96073  68.70339 112.28426  68.15653 112.30270  67.17209 116.97917  67.71895
      19 114.65016  66.95293         10.89957   6.669800 116.97917  67.71895 112.30270  67.17209 112.32116  66.18690 116.99763  66.73376
      19 114.66863  65.96736         10.90796   6.669800 116.99763  66.73376 112.32116  66.18690 112.33963  65.20095 117.01609  65.74781
      19 114.68710  64.98103         10.91635   6.669800 117.01609  65.74781 112.33963  65.20095 112.35811  64.21424 117.03458  64.76110
      19 114.70559  63.99394         10.92475   6.669800 117.03458  64.76110 112.35811  64.21424 112.37660  63.22677 117.05307  63.77363
      19 114.72409  63.00609         10.93316   6.669800 117.05307  63.77363 112.37660  63.22677 112.39512  62.23854 117.07158  62.78540
      19 114.74261  62.01748         10.94157   6.669800 117.07158  62.78540 112.39512  62.23854 112.41364  61.24955 117.09011  61.79641
      19 114.76114  61.02811         10.94999   6.669800 117.09011  61.79641 112.41364  61.24955 112.43218  60.25980 117.10865  60.80666
      19 114.77969  60.03798         10.95842   6.669800 117.10865  60.80666 112.43218  60.25980 112.45073  59.26929 117.12720  59.81615
      19 114.79825  59.04708         10.96685   6.669800 117.12720  59.81615 112.45073  59.26929 112.46930  58.27802 117.14577  58.82488
      19 114.81683  58.05543         10.97529   6.669800 117.14577  58.82488 112.46930  58.27802 112.48788  57.28598 117.16435  57.83284
      19 114.83542  57.06301         10.98373   6.669800 117.16435  57.83284 112.48788  57.28598 112.50648  56.29318 117.18295  56.84004
      19 114.85402  56.06983         10.99219   6.669800 117.18295  56.84004 112.50648  56.29318 112.52509  55.29961 117.20156  55.84647
      19 114.87264  55.07588         11.00065   6.669800 117.20156  55.84647 112.52509  55.29961 112.54372  54.30529 117.22018  54.85215
      19 114.89127  54.08117         11.00911   6.669800 117.22018  54.85215 112.54372  54.30529 112.56235  53.31019 117.23882  53.85705
      19 114.90992  53.08569         11.01758   6.669800 117.23882  53.85705 112.56235  53.31019 112.58101  52.31433 117.25748  52.86119
      19 114.92858  52.08945         11.02606   6.669800 117.25748  52.86119 112.58101  52.31433 112.59968  51.31771 117.27614  51.86457
      19 114.94725  51.09244         11.03455   6.669800 117.27614  51.86457 112.59968  51.31771 112.61836  50.32031 117.29483  50.86717
      19 114.96594  50.09466         11.04304   6.669800 117.29483  50.86717 112.61836  50.32031 112.63706  49.32215 117.31352  49.86901
      19 114.98465  49.09612         11.05154   6.669800 117.31352  49.86901 112.63706  49.32215 112.65577  48.32322 117.33223  48.87008
      19 115.00336  48.09680         11.06004   6.669800 117.33223  48.87008 112.65577  48.32322 112.67449  47.32352 117.35096  47.87038
      19 115.02210  47.09672         11.06855   6.669800 117.35096  47.87038 112.67449  47.32352 112.69323  46.32306 117.36970  46.86992
      19 115.04084  46.09587         11.07707   6.669800 117.36970  46.86992 112.69323  46.32306 112.71199  45.32182 117.38845  45.86868
      19 115.05961  45.09425         11.08559   6.669800 117.38845  45.86868 112.71199  45.32182 112.73076  44.31981 117.40722  44.86667
      19 115.07838  44.09185         11.09412   6.669800 117.40722  44.86667 112.73076  44.31981 112.74954  43.31704 117.42601  43.86390
      19 115.09717  43.08869         11.10266   6.669800 117.42601  43.86390 112.74954  43.31704 112.76834  42.31349 117.44480  42.86035
      19 115.11598  42.08475         11.11120   6.669800 117.44480  42.86035 112.76834  42.31349 112.78715  41.30916 117.46362  41.85602
      19 115.13480  41.08005         11.11975   6.669800 117.46362  41.85602 112.78715  41.30916 112.80598  40.30407 117.48244  40.85093
      19 115.15363  40.07456         11.12831   6.669800 117.48244  40.85093 112.80598  40.30407 112.82482  39.29820 117.50128  39.84506
      19 115.17248  39.06831         11.13688   6.669800 117.50128  39.84506 112.82482  39.29820 112.84367  38.29156 117.52014  38.83842
      19 115.19134  38.06128         11.14545   6.669800 117.52014  38.83842 112.84367  38.29156 112.86254  37.28414 117.53901  37.83100
      19 115.21022  37.05347         11.15402   6.669800 117.53901  37.83100 112.86254  37.28414 112.88143  36.27595 117.55790  36.82281
      19 115.22911  36.04489         11.16261   6.669800 117.55790  36.82281 112.88143  36.27595 112.90033  35.26698 117.57679  35.81384
      19 115.24802  35.03554         11.17120   6.669800 117.57679  35.81384 112.90033  35.26698 112.91924  34.25724 117.59571  34.80410
      19 115.26694  34.02540         11.17979   6.669800 117.59571  34.80410 112.91924  34.25724 112.93817  33.24671 117.61464  33.79357
      19 115.28587  33.01449         11.18839   6.669800 117.61464  33.79357 112.93817  33.24671 112.95711  32.23541 117.63358  32.78227
      19 115.30482  32.00281         11.19700   6.669800 117.63358  32.78227 112.95711  32.23541 112.97607  31.22334 117.65254  31.77020
      19 115.32379  30.99034         11.20562   6.669800 117.65254  31.77020 112.97607  31.22334 112.99504  30.21048 117.67151  30.75734
      19 115.34277  29.97709         11.21424   6.669800 117.67151  30.75734 112.99504  30.21048 113.01403  29.19684 117.69050  29.74370
      19 115.36176  28.96307         11.22287   6.669800 117.69050  29.74370 113.01403  29.19684 113.03303  28.18243 117.70950  28.72929
      19 115.38077  27.94826         11.23151   6.669800 117.70950  28.72929 113.03303  28.18243 113.05205  27.16723 117.72851  27.71409
      19 115.39979  26.93267         11.24015   6.669800 117.72851  27.71409 113.05205  27.16723 113.07108  26.15125 117.74754  26.69811
      19 115.41883  25.91630         11.24880   6.669800 117.74754  26.69811 113.07108  26.15125 113.09012  25.13450 117.76659  25.68136
      19 115.43788  24.89915         11.25746   6.669800 117.76659  25.68136 113.09012  25.13450 113.10918  24.11695 117.78565  24.66381
      19 115.45695  23.88122         11.26612   6.669800 117.78565  24.66381 113.10918  24.11695 113.12826  23.09863 117.80472  23.64549
      18 105.62955 127.40923         10.92475   6.940260 107.96077 128.14369 103.28694 127.57476 103.29832 126.67477 107.97216 127.24370
      18 105.64093 126.50890         10.93316   6.940260 107.97216 127.24370 103.29832 126.67477 103.30971 125.77409 107.98355 126.34302
      18 105.65233 125.60787         10.94157   6.940260 107.98355 126.34302 103.30971 125.77409 103.32111 124.87271 107.99495 125.44164
      18 105.66373 124.70614         10.94999   6.940260 107.99495 125.44164 103.32111 124.87271 103.33252 123.97065 108.00635 124.53957
      18 105.67514 123.80373         10.95842   6.940260 108.00635 124.53957 103.33252 123.97065 103.34394 123.06788 108.01777 123.63681
      18 105.68657 122.90062         10.96685   6.940260 108.01777 123.63681 103.34394 123.06788 103.35536 122.16442 108.02920 122.73335
      18 105.69800 121.99681         10.97529   6.940260 108.02920 122.73335 103.35536 122.16442 103.36680 121.26027 108.04063 121.82920
      18 105.70943 121.09231         10.98373   6.940260 108.04063 121.82920 103.36680 121.26027 103.37824 120.35542 108.05207 120.92435
      18 105.72088 120.18711         10.99219   6.940260 108.05207 120.92435 103.37824 120.35542 103.38969 119.44988 108.06352 120.01880
      18 105.73234 119.28122         11.00065   6.940260 108.06352 120.01880 103.38969 119.44988 103.40115 118.54363 108.07499 119.11256
      18 105.74380 118.37463         11.00911   6.940260 108.07499 119.11256 103.40115 118.54363 103.41262 117.63669 108.08646 118.20562
      18 105.75528 117.46734         11.01758   6.940260 108.08646 118.20562 103.41262 117.63669 103.42410 116.72906 108.09793 117.29798
      18 105.76676 116.55935         11.02606   6.940260 108.09793 117.29798 103.42410 116.72906 103.43559 115.82072 108.10942 116.38965
      18 105.77825 115.65067         11.03455   6.940260 108.10942 116.38965 103.43559 115.82072 103.44708 114.91168 108.12092 115.48061
      18 105.78975 114.74128         11.04304   6.940260 108.12092 115.48061 103.44708 114.91168 103.45859 114.00195 108.13242 114.57088
      18 105.80126 113.83120         11.05154   6.940260 108.13242 114.57088 103.45859 114.00195 103.47010 113.09152 108.14394 113.66044
      18 105.81278 112.92041         11.06004   6.940260 108.14394 113.66044 103.47010 113.09152 103.48162 112.18038 108.15546 112.74931
      18 105.82431 112.00893         11.06855   6.940260 108.15546 112.74931 103.48162 112.18038 103.49316 111.26854 108.16699 111.83747
      18 105.83584 111.09674         11.07707   6.940260 108.16699 111.83747 103.49316 111.26854 103.50470 110.35601 108.17853 110.92493
      18 105.84739 110.18385         11.08559   6.940260 108.17853 110.92493 103.50470 110.35601 103.51625 109.44276 108.19008 110.01169
      18 105.85894 109.27026         11.09412   6.940260 108.19008 110.01169 103.51625 109.44276 103.52780 108.52882 108.20164 109.09775
      18 105.87050 108.35596         11.10266   6.940260 108.20164 109.09775 103.52780 108.52882 103.53937 107.61418 108.21320 108.18310
      18 105.88208 107.44096         11.11120   6.940260 108.21320 108.18310 103.53937 107.61418 103.55095 106.69883 108.22478 107.26775
      18 105.89366 106.52526         11.11975   6.940260 108.22478 107.26775 103.55095 106.69883 103.56253 105.78277 108.23636 106.35170
      18 105.90524 105.60885         11.12831   6.940260 108.23636 106.35170 103.56253 105.78277 103.57412 104.86601 108.24796 105.43494
      18 105.91684 104.69174         11.13688   6.940260 108.24796 105.43494 103.57412 104.86601 103.58573 103.94855 108.25956 104.51747
      18 105.92845 103.77392         11.14545   6.940260 108.25956 104.51747 103.58573 103.94855 103.59734 103.03037 108.27117 103.59930
      18 105.94007 102.85540         11.15402   6.940260 108.27117 103.59930 103.59734 103.03037 103.60896 102.11150 108.28279 102.68043
      18 105.95169 101.93617         11.16261   6.940260 108.28279 102.68043 103.60896 102.11150 103.62059 101.19191 108.29442 101.76084
      18 105.96332 101.01623         11.17120   6.940260 108.29442 101.76084 103.62059 101.19191 103.63223 100.27162 108.30606 100.84055
      18 105.97497 100.09558         11.17979   6.940260 108.30606 100.84055 103.63223 100.27162 103.64387  99.35062 108.31771  99.91955
      18 105.98662  99.17423         11.18839   6.940260 108.31771  99.91955 103.64387  99.35062 103.65553  98.42891 108.32936  98.99784
      18 105.99828  98.25217         11.19700   6.940260 108.32936  98.99784 103.65553  98.42891 103.66720  97.50649 108.34103  98.07542
      18 106.00995  97.32939         11.20562   6.940260 108.34103  98.07542 103.66720  97.50649 103.67887  96.58336 108.35270  97.15229
      18 106.02163  96.40591         11.21424   6.940260 108.35270  97.15229 103.67887  96.58336 103.69055  95.65952 108.36439  96.22845
      18 106.03332  95.48171         11.22287   6.940260 108.36439  96.22845 103.69055  95.65952 103.70225  94.73497 108.37608  95.30390
      18 106.04501  94.55681         11.23151   6.940260 108.37608  95.30390 103.70225  94.73497 103.71395  93.80971 108.38778  94.37864
      18 106.05672  93.63119         11.24015   6.940260 108.38778  94.37864 103.71395  93.80971 103.72566  92.88374 108.39949  93.45267
      18 106.06843  92.70486         11.24880   6.940260 108.39949  93.45267 103.72566  92.88374 103.73738  91.95705 108.41121  92.52598
      18 106.08016  91.77782         11.25746   6.940260 108.41121  92.52598 103.73738  91.95705 103.74910  91.02966 108.42294  91.59858
      18 106.09189  90.85006         11.26612   6.940260 108.42294  91.59858 103.74910  91.02966 103.76084  90.10154 108.43468  90.67047
      18 106.10363  89.92159         11.27479   6.940260 108.43468  90.67047 103.76084  90.10154 103.77259  89.17272 108.44642  89.74165
      18 106.11538  88.99241         11.28347   6.940260 108.44642  89.74165 103.77259  89.17272 103.78434  88.24318 108.45818  88.81210
      18 106.12714  88.06251         11.29215   6.940260 108.45818  88.81210 103.78434  88.24318 103.79611  87.31292 108.46994  87.88185
      18 106.13891  87.13190         11.30084   6.940260 108.46994  87.88185 103.79611  87.31292 103.80788  86.38195 108.48172  86.95087
      18 106.15069  86.20057         11.30954   6.940260 108.48172  86.95087 103.80788  86.38195 103.81966  85.45026 108.49350  86.01919
      18 106.16248  85.26852         11.31824   6.940260 108.49350  86.01919 103.81966  85.45026 103.83146  84.51785 108.50529  85.08678
      18 106.17427  84.33575         11.32695   6.940260 108.50529  85.08678 103.83146  84.51785 103.84326  83.58473 108.51709  84.15366
      18 106.18608  83.40227         11.33567   6.940260 108.51709  84.15366 103.84326  83.58473 103.85507  82.65089 108.52890  83.21981
      18 106.19789  82.46807         11.34439   6.940260 108.52890  83.21981 103.85507  82.65089 103.86689  81.71633 108.54072  82.28525
      18 106.20972  81.53315         11.35312   6.940260 108.54072  82.28525 103.86689  81.71633 103.87871  80.78105 108.55255  81.34997
      18 106.22155  80.59751         11.36185   6.940260 108.55255  81.34997 103.87871  80.78105 103.89055  79.84505 108.56438  80.41398
      18 106.23339  79.66115         11.37060   6.940260 108.56438  80.41398 103.89055  79.84505 103.90240  78.90833 108.57623  79.47726
      18 106.24524  78.72407         11.37935   6.940260 108.57623  79.47726 103.90240  78.90833 103.91425  77.97089 108.58809  78.53982
      18 106.25710  77.78627         11.38810   6.940260 108.58809  78.53982 103.91425  77.97089 103.92612  77.03273 108.59995  77.60165
      18 106.26897  76.84775         11.39687   6.940260 108.59995  77.60165 103.92612  77.03273 103.93799  76.09384 108.61182  76.66277
      18 106.28085  75.90850         11.40564   6.940260 108.61182  76.66277 103.93799  76.09384 103.94987  75.15424 108.62371  75.72317
      18 106.29274  74.96854         11.41442   6.940260 108.62371  75.72317 103.94987  75.15424 103.96176  74.21391 108.63560  74.78284
      18 106.30463  74.02785         11.42320   6.940260 108.63560  74.78284 103.96176  74.21391 103.97366  73.27285 108.64750  73.84178
      18 106.31654  73.08643         11.43199   6.940260 108.64750  73.84178 103.97366  73.27285 103.98558  72.33108 108.65941  72.90001
      18 106.32845  72.14429         11.44079   6.940260 108.65941  72.90001 103.98558  72.33108 103.99749  71.38858 108.67133  71.95751
      18 106.34038  71.20143         11.44959   6.940260 108.67133  71.95751 103.99749  71.38858 104.00942  70.44535 108.68326  71.01428
      18 106.35231  70.25784         11.45840   6.940260 108.68326  71.01428 104.00942  70.44535 104.02136  69.50140 108.69519  70.07033
      18 106.36425  69.31352         11.46722   6.940260 108.69519  70.07033 104.02136  69.50140 104.03331  68.55672 108.70714  69.12565
      18 106.37620  68.36848         11.47604   6.940260 108.70714  69.12565 104.03331  68.55672 104.04526  67.61131 108.71910  68.18024
      18 106.38816  67.42271         11.48487   6.940260 108.71910  68.18024 104.04526  67.61131 104.05723  66.66518 108.73106  67.23411
      18 106.40013  66.47621         11.49371   6.940260 108.73106  67.23411 104.05723  66.66518 104.06920  65.71832 108.74304  66.28725
      18 106.41211  65.52899         11.50256   6.940260 108.74304  66.28725 104.06920  65.71832 104.08119  64.77073 108.75502  65.33966
      18 106.42410  64.58103         11.51141   6.940260 108.75502  65.33966 104.08119  64.77073 104.09318  63.82241 108.76701  64.39134
      18 106.43610  63.63235         11.52027   6.940260 108.76701  64.39134 104.09318  63.82241 104.10518  62.87336 108.77902  63.44229
      18 106.44810  62.68293         11.52913   6.940260 108.77902  63.44229 104.10518  62.87336 104.11719  61.92358 108.79103  62.49251
      18 106.46012  61.73279         11.53800   6.940260 108.79103  62.49251 104.11719  61.92358 104.12921  60.97307 108.80305  61.54200
      18 106.47215  60.78191         11.54688   6.940260 108.80305  61.54200 104.12921  60.97307 104.14124  60.02183 108.81508  60.59075
      18 106.48418  59.83030         11.55577   6.940260 108.81508  60.59075 104.14124  60.02183 104.15328  59.06985 108.82712  59.63878
      18 106.49622  58.87796         11.56466   6.940260 108.82712  59.63878 104.15328  59.06985 104.16533  58.11715 108.83916  58.68607
      18 106.50828  57.92489         11.57356   6.940260 108.83916  58.68607 104.16533  58.11715 104.17739  57.16371 108.85122  57.73264
      18 106.52034  56.97108         11.58247   6.940260 108.85122  57.73264 104.17739  57.16371 104.18945  56.20953 108.86329  56.77846
      18 106.53241  56.01654         11.59138   6.940260 108.86329  56.77846 104.18945  56.20953 104.20153  55.25463 108.87536  55.82355
      18 106.54449  55.06127         11.60030   6.940260 108.87536  55.82355 104.20153  55.25463 104.21362  54.29898 108.88745  54.86791
      18 106.55658  54.10526         11.60923   6.940260 108.88745  54.86791 104.21362  54.29898 104.22571  53.34261 108.89955  53.91153
      18 106.56868  53.14851         11.61816   6.940260 108.89955  53.91153 104.22571  53.34261 104.23782  52.38549 108.91165  52.95442
      18 106.58079  52.19103         11.62710   6.940260 108.91165  52.95442 104.23782  52.38549 104.24993  51.42764 108.92376  51.99657
      18 106.59291  51.23281         11.63605   6.940260 108.92376  51.99657 104.24993  51.42764 104.26205  50.46905 108.93589  51.03798
      18 106.60503  50.27386         11.64500   6.940260 108.93589  51.03798 104.26205  50.46905 104.27418  49.50973 108.94802  50.07866
      18 106.61717  49.31416         11.65396   6.940260 108.94802  50.07866 104.27418  49.50973 104.28632  48.54967 108.96016  49.11859
      18 106.62932  48.35373         11.66293   6.940260 108.96016  49.11859 104.28632  48.54967 104.29848  47.58886 108.97231  48.15779
      18 106.64147  47.39256         11.67191   6.940260 108.97231  48.15779 104.29848  47.58886 104.31064  46.62732 108.98447  47.19625
      18 106.65364  46.43065         11.68089   6.940260 108.98447  47.19625 104.31064  46.62732 104.32280  45.66504 108.99664  46.23397
      18 106.66581  45.46800         11.68988   6.940260 108.99664  46.23397 104.32280  45.66504 104.33498  44.70202 109.00882  45.27095
      18 106.67799  44.50460         11.69887   6.940260 109.00882  45.27095 104.33498  44.70202 104.34717  43.73826 109.02101  44.30719
      18 106.69019  43.54047         11.70787   6.940260 109.02101  44.30719 104.34717  43.73826 104.35937  42.77375 109.03320  43.34268
      18 106.70239  42.57559         11.71688   6.940260 109.03320  43.34268 104.35937  42.77375 104.37158  41.80851 109.04541  42.37743
      18 106.71460  41.60998         11.72590   6.940260 109.04541  42.37743 104.37158  41.80851 104.38379  40.84252 109.05763  41.41145
      18 106.72682  40.64361         11.73492   6.940260 109.05763  41.41145 104.38379  40.84252 104.39602  39.87578 109.06985  40.44471
      18 106.73905  39.67651         11.74395   6.940260 109.06985  40.44471 104.39602  39.87578 104.40825  38.90831 109.08209  39.47724
      18 106.75129  38.70866         11.75299   6.940260 109.08209  39.47724 104.40825  38.90831 104.42050  37.94009 109.09433  38.50901
      18 106.76354  37.74007         11.76204   6.940260 109.09433  38.50901 104.42050  37.94009 104.43275  36.97112 109.10659  37.54005
      18 106.77580  36.77073         11.77109   6.940260 109.10659  37.54005 104.43275  36.97112 104.44502  36.00141 109.11885  36.57034
      18 106.78807  35.80064         11.78015   6.940260 109.11885  36.57034 104.44502  36.00141 104.45729  35.03095 109.13112  35.59988
      18 106.80035  34.82981         11.78921   6.940260 109.13112  35.59988 104.45729  35.03095 104.46957  34.05974 109.14340  34.62867
      18 106.81263  33.85823         11.79828   6.940260 109.14340  34.62867 104.46957  34.05974 104.48186  33.08779 109.15570  33.65672
      18 106.82493  32.88591         11.80736   6.940260 109.15570  33.65672 104.48186  33.08779 104.49416  32.11509 109.16800  32.68402
      18 106.83724  31.91283         11.81645   6.940260 109.16800  32.68402 104.49416  32.11509 104.50647  31.14164 109.18031  31.71057
      18 106.84955  30.93901         11.82554   6.940260 109.18031  31.71057 104.50647  31.14164 104.51879  30.16744 109.19263  30.73637
      18 106.86188  29.96444         11.83464   6.940260 109.19263  30.73637 104.51879  30.16744 104.53112  29.19250 109.20496  29.76143
      18 106.87421  28.98911         11.84375   6.940260 109.20496  29.76143 104.53112  29.19250 104.54346  28.21680 109.21730  28.78573
      18 106.88655  28.01304         11.85286   6.940260 109.21730  28.78573 104.54346  28.21680 104.55581  27.24035 109.22965  27.80928
      18 106.89891  27.03621         11.86198   6.940260 109.22965  27.80928 104.55581  27.24035 104.56817  26.26315 109.24200  26.83208
      18 106.91127  26.05864         11.87111   6.940260 109.24200  26.83208 104.56817  26.26315 104.58054  25.28520 109.25437  25.85413
      18 106.92364  25.08031         11.88025   6.940260 109.25437  25.85413 104.58054  25.28520 104.59291  24.30649 109.26675  24.87542
      18 106.93602  24.10123         11.88939   6.940260 109.26675  24.87542 104.59291  24.30649 104.60530  23.32704 109.27913  23.89596
      18 106.94842  23.12139         11.89854   6.940260 109.27913  23.89596 104.60530  23.32704 104.61770  22.34682 109.29153  22.91575
      18 106.96082  22.14081         11.90769   6.940260 109.29153  22.91575 104.61770  22.34682 104.63010  21.36586 109.30394  21.93479
      18 106.97323  21.15946         11.91686   6.940260 109.30394  21.93479 104.63010  21.36586 104.64252  20.38414 109.31635  20.95307
      18 106.98565  20.17736         11.92603   6.940260 109.31635  20.95307 104.64252  20.38414 104.65494  19.40166 109.32878  19.97059
      18 106.99808  19.19451         11.93521   6.940260 109.32878  19.97059 104.65494  19.40166 104.66738  18.41843 109.34121  18.98736
      18 107.01052  18.21090         11.94439   6.940260 109.34121  18.98736 104.66738  18.41843 104.67982  17.43444 109.35365  18.00337
      18 107.02296  17.22653         11.95358   6.940260 109.35365  18.00337 104.67982  17.43444 104.69227  16.44970 109.36611  17.01862
      17  96.82443 127.40010         11.65396   7.292520  99.15564 128.21831  94.48540 127.62066  94.49322 126.58188  99.16346 127.17953
      17  96.83225 126.36092         11.66293   7.292520  99.16346 127.17953  94.49322 126.58188  94.50104 125.54230  99.17129 126.13995
      17  96.84008 125.32094         11.67191   7.292520  99.17129 126.13995  94.50104 125.54230  94.50887 124.50192  99.17912 125.09958
      17  96.84792 124.28016         11.68089   7.292520  99.17912 125.09958  94.50887 124.50192  94.51671 123.46074  99.18696 124.05840
      17  96.85576 123.23858         11.68988   7.292520  99.18696 124.05840  94.51671 123.46074  94.52456 122.41876  99.19481 123.01641
      17  96.86361 122.19620         11.69887   7.292520  99.19481 123.01641  94.52456 122.41876  94.53241 121.37598  99.20266 121.97363
      17  96.87146 121.15301         11.70787   7.292520  99.20266 121.97363  94.53241 121.37598  94.54026 120.33239  99.21051 120.93005
      17  96.87932 120.10902         11.71688   7.292520  99.21051 120.93005  94.54026 120.33239  94.54813 119.28800  99.21838 119.88566
      17  96.88719 119.06423         11.72590   7.292520  99.21838 119.88566  94.54813 119.28800  94.55600 118.24281  99.22624 118.84046
      17  96.89506 118.01864         11.73492   7.292520  99.22624 118.84046  94.55600 118.24281  94.56387 117.19682  99.23412 117.79447
      17  96.90294 116.97224         11.74395   7.292520  99.23412 117.79447  94.56387 117.19682  94.57175 116.15001  99.24200 116.74767
      17  96.91082 115.92504         11.75299   7.292520  99.24200 116.74767  94.57175 116.15001  94.57964 115.10241  99.24989 115.70006
      17  96.91871 114.87703         11.76204   7.292520  99.24989 115.70006  94.57964 115.10241  94.58753 114.05399  99.25778 114.65165
      17  96.92661 113.82821         11.77109   7.292520  99.25778 114.65165  94.58753 114.05399  94.59543 113.00477  99.26568 113.60243
      17  96.93451 112.77859         11.78015   7.292520  99.26568 113.60243  94.59543 113.00477  94.60334 111.95475  99.27358 112.55240
      17  96.94242 111.72815         11.78921   7.292520  99.27358 112.55240  94.60334 111.95475  94.61125 110.90391  99.28150 111.50156
      17  96.95033 110.67692         11.79828   7.292520  99.28150 111.50156  94.61125 110.90391  94.61916 109.85227  99.28941 110.44992
      17  96.95825 109.62487         11.80736   7.292520  99.28941 110.44992  94.61916 109.85227  94.62709 108.79981  99.29734 109.39747
      17  96.96618 108.57201         11.81645   7.292520  99.29734 109.39747  94.62709 108.79981  94.63502 107.74655  99.30527 108.34420
      17  96.97411 107.51834         11.82554   7.292520  99.30527 108.34420  94.63502 107.74655  94.64295 106.69248  99.31320 107.29013
      17  96.98205 106.46386         11.83464   7.292520  99.31320 107.29013  94.64295 106.69248  94.65090 105.63759  99.32114 106.23524
      17  96.98999 105.40857         11.84375   7.292520  99.32114 106.23524  94.65090 105.63759  94.65884 104.58189  99.32909 105.17955
      17  96.99794 104.35247         11.85286   7.292520  99.32909 105.17955  94.65884 104.58189  94.66680 103.52539  99.33704 104.12304
      17  97.00590 103.29555         11.86198   7.292520  99.33704 104.12304  94.66680 103.52539  94.67476 102.46806  99.34500 103.06572
      17  97.01386 102.23782         11.87111   7.292520  99.34500 103.06572  94.67476 102.46806  94.68272 101.40993  99.35297 102.00758
      17  97.02183 101.17928         11.88025   7.292520  99.35297 102.00758  94.68272 101.40993  94.69070 100.35098  99.36094 100.94863
      17  97.02981 100.11992         11.88939   7.292520  99.36094 100.94863  94.69070 100.35098  94.69867  99.29121  99.36892  99.88887
      17  97.03779  99.05975         11.89854   7.292520  99.36892  99.88887  94.69867  99.29121  94.70666  98.23063  99.37691  98.82829
      17  97.04578  97.99876         11.90769   7.292520  99.37691  98.82829  94.70666  98.23063  94.71465  97.16924  99.38490  97.76689
      17  97.05377  96.93696         11.91686   7.292520  99.38490  97.76689  94.71465  97.16924  94.72265  96.10702  99.39289  96.70468
      17  97.06177  95.87433         11.92603   7.292520  99.39289  96.70468  94.72265  96.10702  94.73065  95.04399  99.40090  95.64165
      17  97.06978  94.81089         11.93521   7.292520  99.40090  95.64165  94.73065  95.04399  94.73866  93.98014  99.40891  94.57780
      17  97.07779  93.74664         11.94439   7.292520  99.40891  94.57780  94.73866  93.98014  94.74667  92.91548  99.41692  93.51313
      17  97.08581  92.68156         11.95358   7.292520  99.41692  93.51313  94.74667  92.91548  94.75470  91.84999  99.42494  92.44764
      17  97.09383  91.61566         11.96278   7.292520  99.42494  92.44764  94.75470  91.84999  94.76272  90.78368  99.43297  91.38134
      17  97.10186  90.54895         11.97199   7.292520  99.43297  91.38134  94.76272  90.78368  94.77076  89.71656  99.44100  90.31421
      17  97.10990  89.48141         11.98120   7.292520  99.44100  90.31421  94.77076  89.71656  94.77880  88.64861  99.44904  89.24626
      17  97.11794  88.41305         11.99042   7.292520  99.44904  89.24626  94.77880  88.64861  94.78684  87.57984  99.45709  88.17749
      17  97.12599  87.34387         11.99965   7.292520  99.45709  88.17749  94.78684  87.57984  94.79490  86.51025  99.46514  87.10790
      17  97.13405  86.27386         12.00888   7.292520  99.46514  87.10790  94.79490  86.51025  94.80295  85.43983  99.47320  86.03748
      17  97.14211  85.20304         12.01812   7.292520  99.47320  86.03748  94.80295  85.43983  94.81102  84.36859  99.48127  84.96624
      17  97.15018  84.13138         12.02737   7.292520  99.48127  84.96624  94.81102  84.36859  94.81909  83.29653  99.48934  83.89418
      17  97.15825  83.05891         12.03662   7.292520  99.48934  83.89418  94.81909  83.29653  94.82717  82.22364  99.49742  82.82129
      17  97.16633  81.98561         12.04589   7.292520  99.49742  82.82129  94.82717  82.22364  94.83525  81.14992  99.50550  81.74758
      17  97.17442  80.91148         12.05516   7.292520  99.50550  81.74758  94.83525  81.14992  94.84334  80.07538  99.51359  80.67304
      17  97.18251  79.83653         12.06443   7.292520  99.51359  80.67304  94.84334  80.07538  94.85144  79.00002  99.52168  79.59767
      17  97.19061  78.76074         12.07372   7.292520  99.52168  79.59767  94.85144  79.00002  94.85954  77.92382  99.52979  78.52147
      17  97.19872  77.68414         12.08301   7.292520  99.52979  78.52147  94.85954  77.92382  94.86765  76.84680  99.53790  77.44445
      17  97.20683  76.60670         12.09231   7.292520  99.53790  77.44445  94.86765  76.84680  94.87576  75.76895  99.54601  76.36660
      17  97.21495  75.52843         12.10161   7.292520  99.54601  76.36660  94.87576  75.76895  94.88388  74.69026  99.55413  75.28792
      17  97.22307  74.44933         12.11092   7.292520  99.55413  75.28792  94.88388  74.69026  94.89201  73.61075  99.56226  74.20841
      17  97.23120  73.36941         12.12024   7.292520  99.56226  74.20841  94.89201  73.61075  94.90014  72.53041  99.57039  73.12806
      17  97.23934  72.28865         12.12957   7.292520  99.57039  73.12806  94.90014  72.53041  94.90828  71.44924  99.57853  72.04689
      17  97.24748  71.20706         12.13890   7.292520  99.57853  72.04689  94.90828  71.44924  94.91643  70.36723  99.58668  70.96488
      17  97.25563  70.12464         12.14825   7.292520  99.58668  70.96488  94.91643  70.36723  94.92458  69.28439  99.59483  69.88205
      17  97.26378  69.04138         12.15759   7.292520  99.59483  69.88205  94.92458  69.28439  94.93274  68.20072  99.60299  68.79837
      17  97.27195  67.95730         12.16695   7.292520  99.60299  68.79837  94.93274  68.20072  94.94090  67.11622  99.61115  67.71387
      17  97.28011  66.87237         12.17631   7.292520  99.61115  67.71387  94.94090  67.11622  94.94908  66.03088  99.61932  66.62853
      17  97.28829  65.78662         12.18568   7.292520  99.61932  66.62853  94.94908  66.03088  94.95725  64.94470  99.62750  65.54235
      17  97.29647  64.70002         12.19506   7.292520  99.62750  65.54235  94.95725  64.94470  94.96544  63.85769  99.63568  64.45534
      17  97.30466  63.61259         12.20444   7.292520  99.63568  64.45534  94.96544  63.85769  94.97363  62.76984  99.64387  63.36750
      17  97.31285  62.52433         12.21384   7.292520  99.64387  63.36750  94.97363  62.76984  94.98182  61.68116  99.65207  62.27881
      17  97.32105  61.43522         12.22323   7.292520  99.65207  62.27881  94.98182  61.68116  94.99002  60.59164  99.66027  61.18929
      17  97.32925  60.34528         12.23264   7.292520  99.66027  61.18929  94.99002  60.59164  94.99823  59.50128  99.66848  60.09893
      17  97.33747  59.25450         12.24205   7.292520  99.66848  60.09893  94.99823  59.50128  95.00645  58.41008  99.67670  59.00773
      17  97.34568  58.16288         12.25147   7.292520  99.67670  59.00773  95.00645  58.41008  95.01467  57.31804  99.68492  57.91569
      17  97.35391  57.07042         12.26090   7.292520  99.68492  57.91569  95.01467  57.31804  95.02290  56.22516  99.69315  56.82281
      17  97.36214  55.97712         12.27034   7.292520  99.69315  56.82281  95.02290  56.22516  95.03113  55.13144  99.70138  55.72909
      17  97.37038  54.88298         12.27978   7.292520  99.70138  55.72909  95.03113  55.13144  95.03937  54.03687  99.70962  54.63453
      17  97.37862  53.78800         12.28923   7.292520  99.70962  54.63453  95.03937  54.03687  95.04762  52.94147  99.71787  53.53912
      17  97.38687  52.69217         12.29869   7.292520  99.71787  53.53912  95.04762  52.94147  95.05587  51.84522  99.72612  52.44287
      17  97.39513  51.59550         12.30815   7.292520  99.72612  52.44287  95.05587  51.84522  95.06413  50.74813  99.73438  51.34578
      17  97.40339  50.49799         12.31762   7.292520  99.73438  51.34578  95.06413  50.74813  95.07240  49.65019  99.74265  50.24785
      17  97.41166  49.39963         12.32710   7.292520  99.74265  50.24785  95.07240  49.65019  95.08067  48.55141  99.75092  49.14907
      17  97.41993  48.30043         12.33659   7.292520  99.75092  49.14907  95.08067  48.55141  95.08895  47.45179  99.75920  48.04944
      17  97.42821  47.20038         12.34608   7.292520  99.75920  48.04944  95.08895  47.45179  95.09723  46.35132  99.76748  46.94897
      17  97.43650  46.09948         12.35558   7.292520  99.76748  46.94897  95.09723  46.35132  95.10552  45.25000  99.77577  45.84765
      17  97.44480  44.99774         12.36509   7.292520  99.77577  45.84765  95.10552  45.25000  95.11382  44.14783  99.78407  44.74548
      17  97.45310  43.89515         12.37460   7.292520  99.78407  44.74548  95.11382  44.14783  95.12213  43.04482  99.79237  43.64247
      17  97.46141  42.79171         12.38413   7.292520  99.79237  43.64247  95.12213  43.04482  95.13044  41.94095  99.80068  42.53860
      17  97.46972  41.68742         12.39366   7.292520  99.80068  42.53860  95.13044  41.94095  95.13875  40.83624  99.80900  41.43389
      17  97.47804  40.58228         12.40319   7.292520  99.80900  41.43389  95.13875  40.83624  95.14708  39.73068  99.81732  40.32833
      17  97.48637  39.47630         12.41274   7.292520  99.81732  40.32833  95.14708  39.73068  95.15541  38.62426  99.82565  39.22192
      17  97.49470  38.36946         12.42229   7.292520  99.82565  39.22192  95.15541  38.62426  95.16374  37.51700  99.83399  38.11465
      17  97.50304  37.26177         12.43185   7.292520  99.83399  38.11465  95.16374  37.51700  95.17209  36.40888  99.84233  37.00653
      17  97.51138  36.15322         12.44142   7.292520  99.84233  37.00653  95.17209  36.40888  95.18043  35.29991  99.85068  35.89756
      17  97.51974  35.04382         12.45099   7.292520  99.85068  35.89756  95.18043  35.29991  95.18879  34.19009  99.85904  34.78774
      17  97.52809  33.93357         12.46057   7.292520  99.85904  34.78774  95.18879  34.19009  95.19715  33.07941  99.86740  33.67706
      17  97.53646  32.82247         12.47016   7.292520  99.86740  33.67706  95.19715  33.07941  95.20552  31.96788  99.87577  32.56553
      17  97.54483  31.71051         12.47976   7.292520  99.87577  32.56553  95.20552  31.96788  95.21389  30.85549  99.88414  31.45314
      17  97.55321  30.59769         12.48936   7.292520  99.88414  31.45314  95.21389  30.85549  95.22228  29.74225  99.89252  30.33990
      17  97.56159  29.48402         12.49897   7.292520  99.89252  30.33990  95.22228  29.74225  95.23066  28.62815  99.90091  29.22580
      17  97.56998  28.36949         12.50859   7.292520  99.90091  29.22580  95.23066  28.62815  95.23906  27.51319  99.90930  28.11084
      17  97.57838  27.25411         12.51821   7.292520  99.90930  28.11084  95.23906  27.51319  95.24746  26.39737  99.91771  26.99503
      17  97.58678  26.13786         12.52785   7.292520  99.91771  26.99503  95.24746  26.39737  95.25586  25.28070  99.92611  25.87835
      17  97.59519  25.02076         12.53749   7.292520  99.92611  25.87835  95.25586  25.28070  95.26428  24.16317  99.93453  24.76082
      17  97.60361  23.90280         12.54714   7.292520  99.93453  24.76082  95.26428  24.16317  95.27270  23.04477  99.94295  23.64243
      17  97.61203  22.78397         12.55679   7.292520  99.94295  23.64243  95.27270  23.04477  95.28112  21.92552  99.95137  22.52317
      17  97.62046  21.66429         12.56645   7.292520  99.95137  22.52317  95.28112  21.92552  95.28956  20.80540  99.95980  21.40306
      17  97.62890  20.54374         12.57612   7.292520  99.95980  21.40306  95.28956  20.80540  95.29800  19.68443  99.96824  20.28208
      17  97.63734  19.42233         12.58580   7.292520  99.96824  20.28208  95.29800  19.68443  95.30644  18.56259  99.97669  19.16024
      17  97.64579  18.30006         12.59549   7.292520  99.97669  19.16024  95.30644  18.56259  95.31489  17.43988  99.98514  18.03754
      17  97.65425  17.17693         12.60518   7.292520  99.98514  18.03754  95.31489  17.43988  95.32335  16.31632  99.99360  16.91397
      17  97.66271  16.05293         12.61488   7.292520  99.99360  16.91397  95.32335  16.31632  95.33182  15.19188 100.00207  15.78954
      17  97.67118  14.92806         12.62459   7.292520 100.00207  15.78954  95.33182  15.19188  95.34029  14.06659 100.01054  14.66424
      17  97.67965  13.80233         12.63430   7.292520 100.01054  14.66424  95.34029  14.06659  95.34877  12.94042 100.01902  13.53808
      17  97.68813  12.67574         12.64402   7.292520 100.01902  13.53808  95.34877  12.94042  95.35725  11.81339 100.02750  12.41105
      17  97.69662  11.54827         12.65375   7.292520 100.02750  12.41105  95.35725  11.81339  95.36574  10.68550 100.03599  11.28315
      16  87.31352 127.12718         12.31762   7.726600  89.65096 127.92638  84.98538 127.29337  84.97607 126.32797  89.64165 126.96099
      16  87.30420 126.16142         12.32710   7.726600  89.64165 126.96099  84.97607 126.32797  84.96675 125.36184  89.63234 125.99486
      16  87.29489 125.19491         12.33659   7.726600  89.63234 125.99486  84.96675 125.36184  84.95743 124.39496  89.62302 125.02798
      16  87.28556 124.22766         12.34608   7.726600  89.62302 125.02798  84.95743 124.39496  84.94811 123.42734  89.61369 124.06036
      16  87.27623 123.25967         12.35558   7.726600  89.61369 124.06036  84.94811 123.42734  84.93877 122.45897  89.60436 123.09199
      16  87.26689 122.29093         12.36509   7.726600  89.60436 123.09199  84.93877 122.45897  84.92943 121.48986  89.59501 122.12288
      16  87.25754 121.32144         12.37460   7.726600  89.59501 122.12288  84.92943 121.48986  84.92008 120.52000  89.58566 121.15302
      16  87.24819 120.35121         12.38413   7.726600  89.58566 121.15302  84.92008 120.52000  84.91072 119.54940  89.57631 120.18242
      16  87.23883 119.38023         12.39366   7.726600  89.57631 120.18242  84.91072 119.54940  84.90136 118.57805  89.56694 119.21107
      16  87.22946 118.40851         12.40319   7.726600  89.56694 119.21107  84.90136 118.57805  84.89198 117.60595  89.55757 118.23897
      16  87.22009 117.43604         12.41274   7.726600  89.55757 118.23897  84.89198 117.60595  84.88260 116.63310  89.54819 117.26612
      16  87.21070 116.46282         12.42229   7.726600  89.54819 117.26612  84.88260 116.63310  84.87322 115.65951  89.53880 116.29253
      16  87.20132 115.48885         12.43185   7.726600  89.53880 116.29253  84.87322 115.65951  84.86383 114.68517  89.52941 115.31818
      16  87.19192 114.51413         12.44142   7.726600  89.52941 115.31818  84.86383 114.68517  84.85443 113.71007  89.52001 114.34309
      16  87.18251 113.53866         12.45099   7.726600  89.52001 114.34309  84.85443 113.71007  84.84502 112.73423  89.51060 113.36724
      16  87.17310 112.56244         12.46057   7.726600  89.51060 113.36724  84.84502 112.73423  84.83560 111.75763  89.50119 112.39065
      16  87.16368 111.58547         12.47016   7.726600  89.50119 112.39065  84.83560 111.75763  84.82618 110.78029  89.49177 111.41330
      16  87.15426 110.60774         12.47976   7.726600  89.49177 111.41330  84.82618 110.78029  84.81675 109.80219  89.48234 110.43520
      16  87.14483 109.62927         12.48936   7.726600  89.48234 110.43520  84.81675 109.80219  84.80731 108.82333  89.47290 109.45635
      16  87.13539 108.65004         12.49897   7.726600  89.47290 109.45635  84.80731 108.82333  84.79787 107.84373  89.46346 108.47675
      16  87.12594 107.67006         12.50859   7.726600  89.46346 108.47675  84.79787 107.84373  84.78842 106.86337  89.45401 107.49639
      16  87.11648 106.68932         12.51821   7.726600  89.45401 107.49639  84.78842 106.86337  84.77896 105.88226  89.44455 106.51528
      16  87.10702 105.70783         12.52785   7.726600  89.44455 106.51528  84.77896 105.88226  84.76950 104.90039  89.43508 105.53341
      16  87.09755 104.72559         12.53749   7.726600  89.43508 105.53341  84.76950 104.90039  84.76002 103.91777  89.42561 104.55078
      16  87.08807 103.74259         12.54714   7.726600  89.42561 104.55078  84.76002 103.91777  84.75054 102.93439  89.41613 103.56740
      16  87.07859 102.75883         12.55679   7.726600  89.41613 103.56740  84.75054 102.93439  84.74105 101.95025  89.40664 102.58327
      16  87.06910 101.77431         12.56645   7.726600  89.40664 102.58327  84.74105 101.95025  84.73156 100.96536  89.39715 101.59837
      16  87.05960 100.78904         12.57612   7.726600  89.39715 101.59837  84.73156 100.96536  84.72206  99.97970  89.38764 100.61272
      16  87.05010  99.80301         12.58580   7.726600  89.38764 100.61272  84.72206  99.97970  84.71255  98.99329  89.37813  99.62631
      16  87.04058  98.81622         12.59549   7.726600  89.37813  99.62631  84.71255  98.99329  84.70303  98.00613  89.36862  98.63914
      16  87.03106  97.82867         12.60518   7.726600  89.36862  98.63914  84.70303  98.00613  84.69351  97.01820  89.35909  97.65121
      16  87.02153  96.84036         12.61488   7.726600  89.35909  97.65121  84.69351  97.01820  84.68397  96.02951  89.34956  96.66252
      16  87.01200  95.85129         12.62459   7.726600  89.34956  96.66252  84.68397  96.02951  84.67444  95.04006  89.34002  95.67307
      16  87.00246  94.86146         12.63430   7.726600  89.34002  95.67307  84.67444  95.04006  84.66489  94.04985  89.33048  94.68286
      16  86.99291  93.87087         12.64402   7.726600  89.33048  94.68286  84.66489  94.04985  84.65534  93.05887  89.32092  93.69189
      16  86.98335  92.87951         12.65375   7.726600  89.32092  93.69189  84.65534  93.05887  84.64578  92.06714  89.31136  92.70015
      16  86.97378  91.88740         12.66349   7.726600  89.31136  92.70015  84.64578  92.06714  84.63621  91.07464  89.30179  91.70765
      16  86.96421  90.89451         12.67324   7.726600  89.30179  91.70765  84.63621  91.07464  84.62663  90.08137  89.29222  90.71439
      16  86.95463  89.90087         12.68299   7.726600  89.29222  90.71439  84.62663  90.08137  84.61705  89.08735  89.28263  89.72036
      16  86.94505  88.90646         12.69275   7.726600  89.28263  89.72036  84.61705  89.08735  84.60746  88.09255  89.27304  88.72557
      16  86.93545  87.91128         12.70252   7.726600  89.27304  88.72557  84.60746  88.09255  84.59786  87.09700  89.26345  87.73001
      16  86.92585  86.91534         12.71229   7.726600  89.26345  87.73001  84.59786  87.09700  84.58826  86.10067  89.25384  86.73369
      16  86.91624  85.91864         12.72207   7.726600  89.25384  86.73369  84.58826  86.10067  84.57864  85.10358  89.24423  85.73660
      16  86.90663  84.92116         12.73186   7.726600  89.24423  85.73660  84.57864  85.10358  84.56902  84.10572  89.23461  84.73874
      16  86.89700  83.92292         12.74166   7.726600  89.23461  84.73874  84.56902  84.10572  84.55940  83.10710  89.22498  83.74012
      16  86.88737  82.92391         12.75147   7.726600  89.22498  83.74012  84.55940  83.10710  84.54976  82.10770  89.21535  82.74072
      16  86.87773  81.92413         12.76128   7.726600  89.21535  82.74072  84.54976  82.10770  84.54012  81.10754  89.20570  81.74056
      16  86.86809  80.92358         12.77110   7.726600  89.20570  81.74056  84.54012  81.10754  84.53047  80.10661  89.19606  80.73963
      16  86.85843  79.92227         12.78093   7.726600  89.19606  80.73963  84.53047  80.10661  84.52081  79.10491  89.18640  79.73792
      16  86.84877  78.92018         12.79076   7.726600  89.18640  79.73792  84.52081  79.10491  84.51115  78.10243  89.17673  78.73545
      16  86.83910  77.91732         12.80061   7.726600  89.17673  78.73545  84.51115  78.10243  84.50148  77.09919  89.16706  77.73220
      16  86.82943  76.91369         12.81046   7.726600  89.16706  77.73220  84.50148  77.09919  84.49180  76.09517  89.15738  76.72819
      16  86.81975  75.90928         12.82031   7.726600  89.15738  76.72819  84.49180  76.09517  84.48211  75.09038  89.14770  75.72340
      16  86.81006  74.90411         12.83018   7.726600  89.14770  75.72340  84.48211  75.09038  84.47242  74.08482  89.13800  74.71783
      16  86.80036  73.89816         12.84005   7.726600  89.13800  74.71783  84.47242  74.08482  84.46271  73.07848  89.12830  73.71150
      16  86.79065  72.89143         12.84993   7.726600  89.12830  73.71150  84.46271  73.07848  84.45301  72.07137  89.11859  72.70439
      16  86.78094  71.88393         12.85982   7.726600  89.11859  72.70439  84.45301  72.07137  84.44329  71.06348  89.10887  71.69650
      16  86.77122  70.87566         12.86972   7.726600  89.10887  71.69650  84.44329  71.06348  84.43356  70.05482  89.09915  70.68784
      16  86.76149  69.86661         12.87962   7.726600  89.09915  70.68784  84.43356  70.05482  84.42383  69.04538  89.08942  69.67840
      16  86.75176  68.85678         12.88953   7.726600  89.08942  69.67840  84.42383  69.04538  84.41409  68.03517  89.07968  68.66818
      16  86.74201  67.84618         12.89945   7.726600  89.07968  68.66818  84.41409  68.03517  84.40435  67.02417  89.06993  67.65719
      16  86.73226  66.83480         12.90938   7.726600  89.06993  67.65719  84.40435  67.02417  84.39459  66.01240  89.06018  66.64542
      16  86.72251  65.82264         12.91931   7.726600  89.06018  66.64542  84.39459  66.01240  84.38483  64.99985  89.05042  65.63287
      16  86.71274  64.80970         12.92925   7.726600  89.05042  65.63287  84.38483  64.99985  84.37506  63.98653  89.04065  64.61954
      16  86.70297  63.79598         12.93920   7.726600  89.04065  64.61954  84.37506  63.98653  84.36529  62.97242  89.03087  63.60544
      16  86.69319  62.78148         12.94916   7.726600  89.03087  63.60544  84.36529  62.97242  84.35550  61.95753  89.02109  62.59055
      16  86.68340  61.76620         12.95912   7.726600  89.02109  62.59055  84.35550  61.95753  84.34571  60.94186  89.01130  61.57488
      16  86.67360  60.75014         12.96910   7.726600  89.01130  61.57488  84.34571  60.94186  84.33591  59.92541  89.00150  60.55843
      16  86.66380  59.73330         12.97908   7.726600  89.00150  60.55843  84.33591  59.92541  84.32610  58.90818  88.99169  59.54119
      16  86.65399  58.71568         12.98907   7.726600  88.99169  59.54119  84.32610  58.90818  84.31629  57.89016  88.98188  58.52318
      16  86.64417  57.69727         12.99906   7.726600  88.98188  58.52318  84.31629  57.89016  84.30647  56.87136  88.97205  57.50438
      16  86.63435  56.67808         13.00906   7.726600  88.97205  57.50438  84.30647  56.87136  84.29664  55.85178  88.96223  56.48480
      16  86.62451  55.65810         13.01907   7.726600  88.96223  56.48480  84.29664  55.85178  84.28680  54.83141  88.95239  55.46443
      16  86.61467  54.63734         13.02909   7.726600  88.95239  55.46443  84.28680  54.83141  84.27696  53.81026  88.94254  54.44327
      16  86.60482  53.61580         13.03912   7.726600  88.94254  54.44327  84.27696  53.81026  84.26711  52.78832  88.93269  53.42134
      16  86.59497  52.59346         13.04915   7.726600  88.93269  53.42134  84.26711  52.78832  84.25725  51.76559  88.92283  52.39861
      16  86.58511  51.57035         13.05919   7.726600  88.92283  52.39861  84.25725  51.76559  84.24738  50.74208  88.91296  51.37510
      16  86.57523  50.54644         13.06924   7.726600  88.91296  51.37510  84.24738  50.74208  84.23750  49.71778  88.90309  50.35080
      16  86.56536  49.52175         13.07930   7.726600  88.90309  50.35080  84.23750  49.71778  84.22762  48.69269  88.89321  49.32571
      16  86.55547  48.49626         13.08937   7.726600  88.89321  49.32571  84.22762  48.69269  84.21773  47.66682  88.88332  48.29983
      16  86.54558  47.46999         13.09944   7.726600  88.88332  48.29983  84.21773  47.66682  84.20783  46.64015  88.87342  47.27317
      16  86.53567  46.44293         13.10952   7.726600  88.87342  47.27317  84.20783  46.64015  84.19793  45.61269  88.86351  46.24571
      16  86.52577  45.41508         13.11961   7.726600  88.86351  46.24571  84.19793  45.61269  84.18802  44.58445  88.85360  45.21746
      16  86.51585  44.38644         13.12970   7.726600  88.85360  45.21746  84.18802  44.58445  84.17810  43.55541  88.84368  44.18843
      16  86.50592  43.35700         13.13981   7.726600  88.84368  44.18843  84.17810  43.55541  84.16817  42.52558  88.83375  43.15859
      16  86.49599  42.32677         13.14992   7.726600  88.83375  43.15859  84.16817  42.52558  84.15823  41.49495  88.82382  42.12797
      16  86.48605  41.29576         13.16004   7.726600  88.82382  42.12797  84.15823  41.49495  84.14829  40.46354  88.81387  41.09656
      16  86.47611  40.26394         13.17016   7.726600  88.81387  41.09656  84.14829  40.46354  84.13834  39.43133  88.80392  40.06435
      16  86.46615  39.23134         13.18030   7.726600  88.80392  40.06435  84.13834  39.43133  84.12838  38.39833  88.79396  39.03134
      16  86.45619  38.19793         13.19044   7.726600  88.79396  39.03134  84.12838  38.39833  84.11841  37.36453  88.78400  37.99754
      16  86.44622  37.16374         13.20059   7.726600  88.78400  37.99754  84.11841  37.36453  84.10844  36.32993  88.77402  36.96295
      16  86.43624  36.12875         13.21075   7.726600  88.77402  36.96295  84.10844  36.32993  84.09846  35.29454  88.76404  35.92756
      16  86.42625  35.09296         13.22092   7.726600  88.76404  35.92756  84.09846  35.29454  84.08847  34.25835  88.75405  34.89137
      16  86.41626  34.05637         13.23109   7.726600  88.75405  34.89137  84.08847  34.25835  84.07847  33.22137  88.74406  33.85439
      16  86.40626  33.01899         13.24127   7.726600  88.74406  33.85439  84.07847  33.22137  84.06846  32.18359  88.73405  32.81661
      16  86.39625  31.98081         13.25146   7.726600  88.73405  32.81661  84.06846  32.18359  84.05845  31.14501  88.72404  31.77802
      16  86.38624  30.94183         13.26166   7.726600  88.72404  31.77802  84.05845  31.14501  84.04843  30.10563  88.71402  30.73864
      16  86.37621  29.90204         13.27186   7.726600  88.71402  30.73864  84.04843  30.10563  84.03840  29.06545  88.70399  29.69846
      16  86.36618  28.86146         13.28208   7.726600  88.70399  29.69846  84.03840  29.06545  84.02837  28.02447  88.69395  28.65748
      16  86.35614  27.82008         13.29230   7.726600  88.69395  28.65748  84.02837  28.02447  84.01833  26.98268  88.68391  27.61570
      16  86.34609  26.77790         13.30253   7.726600  88.68391  27.61570  84.01833  26.98268  84.00827  25.94010  88.67386  26.57312
      16  86.33604  25.73492         13.31276   7.726600  88.67386  26.57312  84.00827  25.94010  83.99822  24.89671  88.66380  25.52973
      16  86.32597  24.69113         13.32301   7.726600  88.66380  25.52973  83.99822  24.89671  83.98815  23.85253  88.65373  24.48554
      16  86.31590  23.64654         13.33326   7.726600  88.65373  24.48554  83.98815  23.85253  83.97807  22.80753  88.64366  23.44055
      16  86.30583  22.60114         13.34352   7.726600  88.64366  23.44055  83.97807  22.80753  83.96799  21.76174  88.63358  22.39476
      16  86.29574  21.55495         13.35379   7.726600  88.63358  22.39476  83.96799  21.76174  83.95790  20.71514  88.62349  21.34815
      16  86.28565  20.50794         13.36407   7.726600  88.62349  21.34815  83.95790  20.71514  83.94780  19.66773  88.61339  20.30075
      16  86.27555  19.46013         13.37435   7.726600  88.61339  20.30075  83.94780  19.66773  83.93770  18.61952  88.60329  19.25254
      16  86.26544  18.41152         13.38464   7.726600  88.60329  19.25254  83.93770  18.61952  83.92759  17.57050  88.59317  18.20352
      16  86.25532  17.36209         13.39494   7.726600  88.59317  18.20352  83.92759  17.57050  83.91747  16.52067  88.58305  17.15369
      16  86.24519  16.31186         13.40525   7.726600  88.58305  17.15369  83.91747  16.52067  83.90734  15.47004  88.57292  16.10306
      16  86.23506  15.26083         13.41556   7.726600  88.57292  16.10306  83.90734  15.47004  83.89720  14.41860  88.56279  15.05161
      16  86.22492  14.20898         13.42589   7.726600  88.56279  15.05161  83.89720  14.41860  83.88706  13.36634  88.55264  13.99936
      16  86.21477  13.15632         13.43622   7.726600  88.55264  13.99936  83.88706  13.36634  83.87690  12.31328  88.54249  12.94630
      16  86.20462  12.10285         13.44656   7.726600  88.54249  12.94630  83.87690  12.31328  83.86674  11.25941  88.53233  11.89243
      16  86.19445  11.04858         13.45691   7.726600  88.53233  11.89243  83.86674  11.25941  83.85658  10.20473  88.52216  10.83774
      16  86.18428   9.99349         13.46726   7.726600  88.52216  10.83774  83.85658  10.20473  83.84640   9.14923  88.51199   9.78225
      16  86.17410   8.93759         13.47763   7.726600  88.51199   9.78225  83.84640   9.14923  83.83622   8.09293  88.50180   8.72594
      16  86.16391   7.88088         13.48800   7.726600  88.50180   8.72594  83.83622   8.09293  83.82603   7.03581  88.49161   7.66882
      16  86.15372   6.82335         13.49838   7.726600  88.49161   7.66882  83.82603   7.03581  83.81583   5.97787  88.48141   6.61089
      16  86.14352   5.76501         13.50876   7.726600  88.48141   6.61089  83.81583   5.97787  83.80562   4.91913  88.47121   5.55214
      15  75.71867 127.98142         13.10952   8.242480  78.05017 128.79552  73.39047 128.12052  73.38717 127.16733  78.04687 127.84233
      15  75.71536 127.02787         13.11961   8.242480  78.04687 127.84233  73.38717 127.16733  73.38386 126.21341  78.04356 126.88841
      15  75.71205 126.07359         13.12970   8.242480  78.04356 126.88841  73.38386 126.21341  73.38055 125.25876  78.04025 125.93376
      15  75.70874 125.11857         13.13981   8.242480  78.04025 125.93376  73.38055 125.25876  73.37724 124.30338  78.03693 124.97838
      15  75.70543 124.16281         13.14992   8.242480  78.03693 124.97838  73.37724 124.30338  73.37392 123.34725  78.03362 124.02225
      15  75.70211 123.20633         13.16004   8.242480  78.03362 124.02225  73.37392 123.34725  73.37060 122.39040  78.03030 123.06540
      15  75.69879 122.24910         13.17016   8.242480  78.03030 123.06540  73.37060 122.39040  73.36728 121.43280  78.02698 122.10780
      15  75.69547 121.29114         13.18030   8.242480  78.02698 122.10780  73.36728 121.43280  73.36396 120.47447  78.02366 121.14947
      15  75.69214 120.33244         13.19044   8.242480  78.02366 121.14947  73.36396 120.47447  73.36063 119.51540  78.02033 120.19040
      15  75.68882 119.37300         13.20059   8.242480  78.02033 120.19040  73.36063 119.51540  73.35730 118.55560  78.01700 119.23060
      15  75.68549 118.41282         13.21075   8.242480  78.01700 119.23060  73.35730 118.55560  73.35397 117.59505  78.01367 118.27005
      15  75.68216 117.45191         13.22092   8.242480  78.01367 118.27005  73.35397 117.59505  73.35064 116.63377  78.01034 117.30877
      15  75.67882 116.49026         13.23109   8.242480  78.01034 117.30877  73.35064 116.63377  73.34730 115.67174  78.00700 116.34674
      15  75.67548 115.52786         13.24127   8.242480  78.00700 116.34674  73.34730 115.67174  73.34397 114.70898  78.00366 115.38398
      15  75.67214 114.56473         13.25146   8.242480  78.00366 115.38398  73.34397 114.70898  73.34062 113.74548  78.00032 114.42047
      15  75.66880 113.60085         13.26166   8.242480  78.00032 114.42047  73.34062 113.74548  73.33728 112.78123  77.99698 113.45623
      15  75.66546 112.63623         13.27186   8.242480  77.99698 113.45623  73.33728 112.78123  73.33393 111.81624  77.99363 112.49124
      15  75.66211 111.67087         13.28208   8.242480  77.99363 112.49124  73.33393 111.81624  73.33058 110.85051  77.99028 111.52551
      15  75.65876 110.70477         13.29230   8.242480  77.99028 111.52551  73.33058 110.85051  73.32723 109.88404  77.98693 110.55903
      15  75.65540 109.73793         13.30253   8.242480  77.98693 110.55903  73.32723 109.88404  73.32388 108.91682  77.98358 109.59182
      15  75.65205 108.77034         13.31276   8.242480  77.98358 109.59182  73.32388 108.91682  73.32052 107.94886  77.98022 108.62385
      15  75.64869 107.80200         13.32301   8.242480  77.98022 108.62385  73.32052 107.94886  73.31716 106.98015  77.97686 107.65515
      15  75.64533 106.83292         13.33326   8.242480  77.97686 107.65515  73.31716 106.98015  73.31380 106.01070  77.97350 106.68570
      15  75.64197 105.86310         13.34352   8.242480  77.97350 106.68570  73.31380 106.01070  73.31044 105.04050  77.97013 105.71550
      15  75.63860 104.89252         13.35379   8.242480  77.97013 105.71550  73.31044 105.04050  73.30707 104.06955  77.96677 104.74455
      15  75.63523 103.92121         13.36407   8.242480  77.96677 104.74455  73.30707 104.06955  73.30370 103.09786  77.96340 103.77286
      15  75.63186 102.94914         13.37435   8.242480  77.96340 103.77286  73.30370 103.09786  73.30033 102.12542  77.96003 102.80042
      15  75.62849 101.97633         13.38464   8.242480  77.96003 102.80042  73.30033 102.12542  73.29695 101.15223  77.95665 101.82723
      15  75.62511 101.00276         13.39494   8.242480  77.95665 101.82723  73.29695 101.15223  73.29358 100.17829  77.95327 100.85329
      15  75.62173 100.02845         13.40525   8.242480  77.95327 100.85329  73.29358 100.17829  73.29020  99.20361  77.94989  99.87861
      15  75.61835  99.05339         13.41556   8.242480  77.94989  99.87861  73.29020  99.20361  73.28681  98.22817  77.94651  98.90317
      15  75.61497  98.07758         13.42589   8.242480  77.94651  98.90317  73.28681  98.22817  73.28343  97.25198  77.94313  97.92698
      15  75.61158  97.10101         13.43622   8.242480  77.94313  97.92698  73.28343  97.25198  73.28004  96.27504  77.93974  96.95004
      15  75.60819  96.12370         13.44656   8.242480  77.93974  96.95004  73.28004  96.27504  73.27665  95.29735  77.93635  95.97235
      15  75.60480  95.14563         13.45691   8.242480  77.93635  95.97235  73.27665  95.29735  73.27326  94.31891  77.93295  94.99391
      15  75.60141  94.16681         13.46726   8.242480  77.93295  94.99391  73.27326  94.31891  73.26986  93.33972  77.92956  94.01472
      15  75.59801  93.18724         13.47763   8.242480  77.92956  94.01472  73.26986  93.33972  73.26646  92.35977  77.92616  93.03477
      15  75.59461  92.20691         13.48800   8.242480  77.92616  93.03477  73.26646  92.35977  73.26306  91.37906  77.92276  92.05406
      15  75.59121  91.22583         13.49838   8.242480  77.92276  92.05406  73.26306  91.37906  73.25966  90.39761  77.91936  91.07260
      15  75.58780  90.24400         13.50876   8.242480  77.91936  91.07260  73.25966  90.39761  73.25625  89.41539  77.91595  90.09039
      15  75.58440  89.26141         13.51916   8.242480  77.91595  90.09039  73.25625  89.41539  73.25284  88.43242  77.91254  89.10742
      15  75.58099  88.27806         13.52956   8.242480  77.91254  89.10742  73.25284  88.43242  73.24943  87.44870  77.90913  88.12370
      15  75.57757  87.29396         13.53997   8.242480  77.90913  88.12370  73.24943  87.44870  73.24602  86.46421  77.90572  87.13921
      15  75.57416  86.30909         13.55039   8.242480  77.90572  87.13921  73.24602  86.46421  73.24260  85.47897  77.90230  86.15397
      15  75.57074  85.32348         13.56082   8.242480  77.90230  86.15397  73.24260  85.47897  73.23918  84.49298  77.89888  85.16798
      15  75.56732  84.33710         13.57126   8.242480  77.89888  85.16798  73.23918  84.49298  73.23576  83.50622  77.89546  84.18122
      15  75.56390  83.34996         13.58170   8.242480  77.89546  84.18122  73.23576  83.50622  73.23234  82.51870  77.89203  83.19370
      15  75.56047  82.36206         13.59215   8.242480  77.89203  83.19370  73.23234  82.51870  73.22891  81.53043  77.88861  82.20543
      15  75.55704  81.37341         13.60261   8.242480  77.88861  82.20543  73.22891  81.53043  73.22548  80.54139  77.88518  81.21639
      15  75.55361  80.38399         13.61308   8.242480  77.88518  81.21639  73.22548  80.54139  73.22205  79.55159  77.88174  80.22659
      15  75.55018  79.39381         13.62355   8.242480  77.88174  80.22659  73.22205  79.55159  73.21861  78.56103  77.87831  79.23603
      15  75.54674  78.40287         13.63404   8.242480  77.87831  79.23603  73.21861  78.56103  73.21517  77.56971  77.87487  78.24471
      15  75.54330  77.41117         13.64453   8.242480  77.87487  78.24471  73.21517  77.56971  73.21173  76.57763  77.87143  77.25263
      15  75.53986  76.41870         13.65503   8.242480  77.87143  77.25263  73.21173  76.57763  73.20829  75.58478  77.86799  76.25978
      15  75.53642  75.42547         13.66554   8.242480  77.86799  76.25978  73.20829  75.58478  73.20485  74.59117  77.86454  75.26617
      15  75.53297  74.43148         13.67605   8.242480  77.86454  75.26617  73.20485  74.59117  73.20140  73.59679  77.86109  74.27179
      15  75.52952  73.43672         13.68658   8.242480  77.86109  74.27179  73.20140  73.59679  73.19795  72.60165  77.85764  73.27665
      15  75.52607  72.44119         13.69711   8.242480  77.85764  73.27665  73.19795  72.60165  73.19449  71.60574  77.85419  72.28074
      15  75.52261  71.44490         13.70765   8.242480  77.85419  72.28074  73.19449  71.60574  73.19104  70.60907  77.85073  71.28407
      15  75.51916  70.44784         13.71820   8.242480  77.85073  71.28407  73.19104  70.60907  73.18758  69.61162  77.84727  70.28662
      15  75.51570  69.45002         13.72875   8.242480  77.84727  70.28662  73.18758  69.61162  73.18412  68.61342  77.84381  69.28842
      15  75.51223  68.45143         13.73932   8.242480  77.84381  69.28842  73.18412  68.61342  73.18065  67.61444  77.84035  68.28944
      15  75.50877  67.45207         13.74989   8.242480  77.84035  68.28944  73.18065  67.61444  73.17718  66.61469  77.83688  67.28969
      15  75.50530  66.45194         13.76047   8.242480  77.83688  67.28969  73.17718  66.61469  73.17372  65.61418  77.83341  66.28918
      15  75.50183  65.45104         13.77106   8.242480  77.83341  66.28918  73.17372  65.61418  73.17024  64.61289  77.82994  65.28789
      15  75.49835  64.44937         13.78166   8.242480  77.82994  65.28789  73.17024  64.61289  73.16677  63.61084  77.82647  64.28584
      15  75.49488  63.44693         13.79226   8.242480  77.82647  64.28584  73.16677  63.61084  73.16329  62.60801  77.82299  63.28301
      15  75.49140  62.44371         13.80288   8.242480  77.82299  63.28301  73.16329  62.60801  73.15981  61.60441  77.81951  62.27941
      15  75.48792  61.43973         13.81350   8.242480  77.81951  62.27941  73.15981  61.60441  73.15633  60.60004  77.81602  61.27504
      15  75.48443  60.43497         13.82413   8.242480  77.81602  61.27504  73.15633  60.60004  73.15284  59.59490  77.81254  60.26990
      15  75.48095  59.42944         13.83477   8.242480  77.81254  60.26990  73.15284  59.59490  73.14935  58.58898  77.80905  59.26398
      15  75.47746  58.42314         13.84541   8.242480  77.80905  59.26398  73.14935  58.58898  73.14586  57.58229  77.80556  58.25729
      15  75.47396  57.41606         13.85607   8.242480  77.80556  58.25729  73.14586  57.58229  73.14237  56.57483  77.80207  57.24983
      15  75.47047  56.40821         13.86673   8.242480  77.80207  57.24983  73.14237  56.57483  73.13887  55.56659  77.79857  56.24159
      15  75.46697  55.39958         13.87740   8.242480  77.79857  56.24159  73.13887  55.56659  73.13537  54.55757  77.79507  55.23257
      15  75.46347  54.39017         13.88808   8.242480  77.79507  55.23257  73.13537  54.55757  73.13187  53.54778  77.79157  54.22278
      15  75.45997  53.37999         13.89877   8.242480  77.79157  54.22278  73.13187  53.54778  73.12837  52.53721  77.78806  53.21221
      15  75.45646  52.36903         13.90946   8.242480  77.78806  53.21221  73.12837  52.53721  73.12486  51.52586  77.78456  52.20086
      15  75.45295  51.35730         13.92017   8.242480  77.78456  52.20086  73.12486  51.52586  73.12135  50.51373  77.78105  51.18873
      15  75.44944  50.34478         13.93088   8.242480  77.78105  51.18873  73.12135  50.51373  73.11784  49.50083  77.77753  50.17583
      15  75.44593  49.33149         13.94160   8.242480  77.77753  50.17583  73.11784  49.50083  73.11432  48.48714  77.77402  49.16214
      15  75.44241  48.31741         13.95233   8.242480  77.77402  49.16214  73.11432  48.48714  73.11080  47.47268  77.77050  48.14768
      15  75.43889  47.30256         13.96306   8.242480  77.77050  48.14768  73.11080  47.47268  73.10728  46.45743  77.76698  47.13243
      15  75.43537  46.28692         13.97381   8.242480  77.76698  47.13243  73.10728  46.45743  73.10376  45.44141  77.76346  46.11641
      15  75.43185  45.27050         13.98456   8.242480  77.76346  46.11641  73.10376  45.44141  73.10023  44.42460  77.75993  45.09960
      15  75.42832  44.25330         13.99532   8.242480  77.75993  45.09960  73.10023  44.42460  73.09671  43.40701  77.75640  44.08201
      15  75.42479  43.23532         14.00609   8.242480  77.75640  44.08201  73.09671  43.40701  73.09317  42.38864  77.75287  43.06363
      15  75.42126  42.21656         14.01687   8.242480  77.75287  43.06363  73.09317  42.38864  73.08964  41.36948  77.74934  42.04448
      15  75.41772  41.19701         14.02766   8.242480  77.74934  42.04448  73.08964  41.36948  73.08610  40.34954  77.74580  41.02454
      15  75.41418  40.17667         14.03845   8.242480  77.74580  41.02454  73.08610  40.34954  73.08256  39.32881  77.74226  40.00381
      15  75.41064  39.15555         14.04926   8.242480  77.74226  40.00381  73.08256  39.32881  73.07902  38.30730  77.73872  38.98230
      15  75.40710  38.13365         14.06007   8.242480  77.73872  38.98230  73.07902  38.30730  73.07548  37.28500  77.73517  37.96000
      15  75.40355  37.11096         14.07089   8.242480  77.73517  37.96000  73.07548  37.28500  73.07193  36.26191  77.73163  36.93691
      15  75.40000  36.08748         14.08171   8.242480  77.73163  36.93691  73.07193  36.26191  73.06838  35.23804  77.72807  35.91304
      15  75.39645  35.06321         14.09255   8.242480  77.72807  35.91304  73.06838  35.23804  73.06482  34.21338  77.72452  34.88838
      15  75.39289  34.03816         14.10339   8.242480  77.72452  34.88838  73.06482  34.21338  73.06127  33.18793  77.72097  33.86293
      15  75.38934  33.01232         14.11425   8.242480  77.72097  33.86293  73.06127  33.18793  73.05771  32.16170  77.71741  32.83670
      15  75.38578  31.98568         14.12511   8.242480  77.71741  32.83670  73.05771  32.16170  73.05415  31.13467  77.71385  31.80967
      15  75.38221  30.95826         14.13598   8.242480  77.71385  31.80967  73.05415  31.13467  73.05058  30.10685  77.71028  30.78185
      15  75.37865  29.93005         14.14686   8.242480  77.71028  30.78185  73.05058  30.10685  73.04702  29.07824  77.70671  29.75324
      15  75.37508  28.90104         14.15774   8.242480  77.70671  29.75324  73.04702  29.07824  73.04345  28.04884  77.70314  28.72384
      15  75.37151  27.87125         14.16864   8.242480  77.70314  28.72384  73.04345  28.04884  73.03987  27.01865  77.69957  27.69365
      15  75.36794  26.84066         14.17954   8.242480  77.69957  27.69365  73.03987  27.01865  73.03630  25.98767  77.69600  26.66267
      15  75.36436  25.80928         14.19045   8.242480  77.69600  26.66267  73.03630  25.98767  73.03272  24.95589  77.69242  25.63089
      15  75.36078  24.77710         14.20137   8.242480  77.69242  25.63089  73.03272  24.95589  73.02914  23.92331  77.68884  24.59831
      15  75.35720  23.74413         14.21230   8.242480  77.68884  24.59831  73.02914  23.92331  73.02556  22.88995  77.68525  23.56495
      15  75.35361  22.71037         14.22324   8.242480  77.68525  23.56495  73.02556  22.88995  73.02197  21.85579  77.68167  22.53079
      15  75.35002  21.67581         14.23418   8.242480  77.68167  22.53079  73.02197  21.85579  73.01838  20.82083  77.67808  21.49583
      15  75.34643  20.64045         14.24514   8.242480  77.67808  21.49583  73.01838  20.82083  73.01479  19.78507  77.67449  20.46007
      15  75.34284  19.60430         14.25610   8.242480  77.67449  20.46007  73.01479  19.78507  73.01120  18.74852  77.67089  19.42352
      15  75.33925  18.56735         14.26707   8.242480  77.67089  19.42352  73.01120  18.74852  73.00760  17.71117  77.66730  18.38617
      15  75.33565  17.52960         14.27805   8.242480  77.66730  18.38617  73.00760  17.71117  73.00400  16.67303  77.66370  17.34802
      15  75.33205  16.49105         14.28904   8.242480  77.66370  17.34802  73.00400  16.67303  73.00040  15.63408  77.66009  16.30908
      15  75.32844  15.45171         14.30003   8.242480  77.66009  16.30908  73.00040  15.63408  72.99679  14.59433  77.65649  15.26933
      15  75.32483  14.41156         14.31104   8.242480  77.65649  15.26933  72.99679  14.59433  72.99318  13.55379  77.65288  14.22879
      15  75.32122  13.37061         14.32205   8.242480  77.65288  14.22879  72.99318  13.55379  72.98957  12.51244  77.64927  13.18744
      15  75.31761  12.32887         14.33307   8.242480  77.64927  13.18744  72.98957  12.51244  72.98596  11.47029  77.64565  12.14529
      15  75.31400  11.28632         14.34410   8.242480  77.64565  12.14529  72.98596  11.47029  72.98234  10.42734  77.64204  11.10234
      15  75.31038  10.24297         14.35514   8.242480  77.64204  11.10234  72.98234  10.42734  72.97872   9.38359  77.63842  10.05859
      15  75.30676   9.19881         14.36618   8.242480  77.63842  10.05859  72.97872   9.38359  72.97510   8.33903  77.63480   9.01403
      15  75.30313   8.15385         14.37724   8.242480  77.63480   9.01403  72.97510   8.33903  72.97147   7.29368  77.63117   7.96867
      15  75.29951   7.10809         14.38830   8.242480  77.63117   7.96867  72.97147   7.29368  72.96784   6.24751  77.62754   6.92251
      15  75.29588   6.06153         14.39937   8.242480  77.62754   6.92251  72.96784   6.24751  72.96421   5.20054  77.62391   5.87554
      15  75.29225   5.01415         14.41046   8.242480  77.62391   5.87554  72.96421   5.20054  72.96058   4.15277  77.62028   4.82777
      15  75.28861   3.96598         14.42154   8.242480  77.62028   4.82777  72.96058   4.15277  72.95694   3.10419  77.61664   3.77919
      15  75.28497   2.91699         14.43264   8.242480  77.61664   3.77919  72.95694   3.10419  72.95331   2.05480  77.61300   2.72980
      15  75.28133   1.86720         14.44375   8.242480  77.61300   2.72980  72.95331   2.05480  72.94966   1.00460  77.60936   1.67960
      15  75.27769   0.81660         14.45486   8.242480  77.60936   1.67960  72.94966   1.00460  72.94602  -0.04640  77.60572   0.62860
      14  63.66142 127.65359         14.02766   8.840170  65.99796 128.49031  61.34556 127.76674  61.32488 126.81687  65.97729 127.54044
      14  63.64074 126.70336         14.03845   8.840170  65.97729 127.54044  61.32488 126.81687  61.30419 125.86627  65.95660 126.58984
      14  63.62004 125.75239         14.04926   8.840170  65.95660 126.58984  61.30419 125.86627  61.28349 124.91494  65.93589 125.63851
      14  63.59933 124.80069         14.06007   8.840170  65.93589 125.63851  61.28349 124.91494  61.26277 123.96287  65.91517 124.68644
      14  63.57860 123.84826         14.07089   8.840170  65.91517 124.68644  61.26277 123.96287  61.24203 123.01007  65.89444 123.73364
      14  63.55786 122.89509         14.08171   8.840170  65.89444 123.73364  61.24203 123.01007  61.22128 122.05654  65.87368 122.78011
      14  63.53710 121.94119         14.09255   8.840170  65.87368 122.78011  61.22128 122.05654  61.20051 121.10227  65.85291 121.82584
      14  63.51632 120.98656         14.10339   8.840170  65.85291 121.82584  61.20051 121.10227  61.17973 120.14727  65.83213 120.87084
      14  63.49553 120.03119         14.11425   8.840170  65.83213 120.87084  61.17973 120.14727  61.15893 119.19154  65.81133 119.91511
      14  63.47472 119.07509         14.12511   8.840170  65.81133 119.91511  61.15893 119.19154  61.13811 118.23507  65.79051 118.95864
      14  63.45390 118.11825         14.13598   8.840170  65.79051 118.95864  61.13811 118.23507  61.11728 117.27786  65.76968 118.00143
      14  63.43306 117.16068         14.14686   8.840170  65.76968 118.00143  61.11728 117.27786  61.09643 116.31992  65.74883 117.04349
      14  63.41220 116.20236         14.15774   8.840170  65.74883 117.04349  61.09643 116.31992  61.07557 115.36124  65.72797 116.08481
      14  63.39133 115.24332         14.16864   8.840170  65.72797 116.08481  61.07557 115.36124  61.05468 114.40182  65.70709 115.12539
      14  63.37044 114.28353         14.17954   8.840170  65.70709 115.12539  61.05468 114.40182  61.03379 113.44167  65.68619 114.16524
      14  63.34953 113.32300         14.19045   8.840170  65.68619 114.16524  61.03379 113.44167  61.01288 112.48077  65.66528 113.20434
      14  63.32861 112.36174         14.20137   8.840170  65.66528 113.20434  61.01288 112.48077  60.99195 111.51914  65.64435 112.24271
      14  63.30768 111.39973         14.21230   8.840170  65.64435 112.24271  60.99195 111.51914  60.97100 110.55676  65.62340 111.28033
      14  63.28672 110.43699         14.22324   8.840170  65.62340 111.28033  60.97100 110.55676  60.95004 109.59365  65.60244 110.31722
      14  63.26575 109.47350         14.23418   8.840170  65.60244 110.31722  60.95004 109.59365  60.92906 108.62979  65.58147 109.35336
      14  63.24477 108.50928         14.24514   8.840170  65.58147 109.35336  60.92906 108.62979  60.90807 107.66519  65.56047 108.38876
      14  63.22377 107.54431         14.25610   8.840170  65.56047 108.38876  60.90807 107.66519  60.88706 106.69985  65.53946 107.42342
      14  63.20275 106.57860         14.26707   8.840170  65.53946 107.42342  60.88706 106.69985  60.86603 105.73377  65.51844 106.45734
      14  63.18172 105.61214         14.27805   8.840170  65.51844 106.45734  60.86603 105.73377  60.84499 104.76694  65.49740 105.49051
      14  63.16067 104.64494         14.28904   8.840170  65.49740 105.49051  60.84499 104.76694  60.82394 103.79937  65.47634 104.52294
      14  63.13960 103.67700         14.30003   8.840170  65.47634 104.52294  60.82394 103.79937  60.80286 102.83106  65.45526 103.55463
      14  63.11852 102.70831         14.31104   8.840170  65.45526 103.55463  60.80286 102.83106  60.78177 101.86200  65.43417 102.58557
      14  63.09742 101.73888         14.32205   8.840170  65.43417 102.58557  60.78177 101.86200  60.76066 100.89219  65.41307 101.61576
      14  63.07630 100.76870         14.33307   8.840170  65.41307 101.61576  60.76066 100.89219  60.73954  99.92164  65.39194 100.64521
      14  63.05517  99.79778         14.34410   8.840170  65.39194 100.64521  60.73954  99.92164  60.71840  98.95034  65.37080  99.67391
      14  63.03403  98.82610         14.35514   8.840170  65.37080  99.67391  60.71840  98.95034  60.69725  97.97829  65.34965  98.70186
      14  63.01286  97.85368         14.36618   8.840170  65.34965  98.70186  60.69725  97.97829  60.67607  97.00550  65.32848  97.72907
      14  62.99168  96.88051         14.37724   8.840170  65.32848  97.72907  60.67607  97.00550  60.65489  96.03196  65.30729  96.75553
      14  62.97049  95.90660         14.38830   8.840170  65.30729  96.75553  60.65489  96.03196  60.63368  95.05766  65.28608  95.78123
      14  62.94927  94.93193         14.39937   8.840170  65.28608  95.78123  60.63368  95.05766  60.61246  94.08262  65.26486  94.80619
      14  62.92804  93.95651         14.41046   8.840170  65.26486  94.80619  60.61246  94.08262  60.59122  93.10683  65.24363  93.83040
      14  62.90680  92.98034         14.42154   8.840170  65.24363  93.83040  60.59122  93.10683  60.56997  92.13029  65.22237  92.85386
      14  62.88554  92.00342         14.43264   8.840170  65.22237  92.85386  60.56997  92.13029  60.54870  91.15299  65.20110  91.87656
      14  62.86426  91.02575         14.44375   8.840170  65.20110  91.87656  60.54870  91.15299  60.52742  90.17495  65.17982  90.89852
      14  62.84297  90.04733         14.45486   8.840170  65.17982  90.89852  60.52742  90.17495  60.50611  89.19615  65.15852  89.91972
      14  62.82165  89.06815         14.46599   8.840170  65.15852  89.91972  60.50611  89.19615  60.48479  88.21659  65.13720  88.94016
      14  62.80033  88.08823         14.47712   8.840170  65.13720  88.94016  60.48479  88.21659  60.46346  87.23629  65.11586  87.95986
      14  62.77898  87.10754         14.48826   8.840170  65.11586  87.95986  60.46346  87.23629  60.44211  86.25523  65.09451  86.97880
      14  62.75762  86.12610         14.49941   8.840170  65.09451  86.97880  60.44211  86.25523  60.42074  85.27341  65.07314  85.99698
      14  62.73625  85.14391         14.51057   8.840170  65.07314  85.99698  60.42074  85.27341  60.39935  84.29084  65.05176  85.01441
      14  62.71486  84.16096         14.52173   8.840170  65.05176  85.01441  60.39935  84.29084  60.37795  83.30751  65.03036  84.03108
      14  62.69345  83.17726         14.53291   8.840170  65.03036  84.03108  60.37795  83.30751  60.35654  82.32343  65.00894  83.04700
      14  62.67202  82.19279         14.54409   8.840170  65.00894  83.04700  60.35654  82.32343  60.33510  81.33859  64.98751  82.06216
      14  62.65058  81.20757         14.55528   8.840170  64.98751  82.06216  60.33510  81.33859  60.31365  80.35299  64.96605  81.07656
      14  62.62912  80.22159         14.56648   8.840170  64.96605  81.07656  60.31365  80.35299  60.29219  79.36663  64.94459  80.09020
      14  62.60764  79.23486         14.57769   8.840170  64.94459  80.09020  60.29219  79.36663  60.27070  78.37951  64.92310  79.10308
      14  62.58615  78.24736         14.58891   8.840170  64.92310  79.10308  60.27070  78.37951  60.24920  77.39164  64.90160  78.11521
      14  62.56464  77.25910         14.60014   8.840170  64.90160  78.11521  60.24920  77.39164  60.22769  76.40300  64.88009  77.12657
      14  62.54312  76.27009         14.61137   8.840170  64.88009  77.12657  60.22769  76.40300  60.20615  75.41360  64.85855  76.13717
      14  62.52158  75.28031         14.62262   8.840170  64.85855  76.13717  60.20615  75.41360  60.18460  74.42344  64.83701  75.14701
      14  62.50002  74.28977         14.63387   8.840170  64.83701  75.14701  60.18460  74.42344  60.16304  73.43252  64.81544  74.15609
      14  62.47845  73.29847         14.64513   8.840170  64.81544  74.15609  60.16304  73.43252  60.14145  72.44084  64.79386  73.16441
      14  62.45686  72.30640         14.65640   8.840170  64.79386  73.16441  60.14145  72.44084  60.11985  71.44839  64.77226  72.17197
      14  62.43525  71.31357         14.66768   8.840170  64.77226  72.17197  60.11985  71.44839  60.09824  70.45518  64.75064  71.17876
      14  62.41362  70.31998         14.67897   8.840170  64.75064  71.17876  60.09824  70.45518  60.07661  69.46121  64.72901  70.18478
      14  62.39198  69.32563         14.69026   8.840170  64.72901  70.18478  60.07661  69.46121  60.05496  68.46647  64.70736  69.19004
      14  62.37032  68.33050         14.70157   8.840170  64.70736  69.19004  60.05496  68.46647  60.03329  67.47097  64.68569  68.19454
      14  62.34865  67.33462         14.71288   8.840170  64.68569  68.19454  60.03329  67.47097  60.01161  66.47470  64.66401  67.19827
      14  62.32696  66.33796         14.72420   8.840170  64.66401  67.19827  60.01161  66.47470  59.98991  65.47766  64.64231  66.20123
      14  62.30525  65.34054         14.73553   8.840170  64.64231  66.20123  59.98991  65.47766  59.96819  64.47985  64.62059  65.20342
      14  62.28353  64.34235         14.74687   8.840170  64.62059  65.20342  59.96819  64.47985  59.94646  63.48128  64.59886  64.20485
      14  62.26179  63.34340         14.75822   8.840170  64.59886  64.20485  59.94646  63.48128  59.92471  62.48194  64.57711  63.20551
      14  62.24003  62.34367         14.76958   8.840170  64.57711  63.20551  59.92471  62.48194  59.90294  61.48183  64.55535  62.20540
      14  62.21825  61.34318         14.78094   8.840170  64.55535  62.20540  59.90294  61.48183  59.88116  60.48095  64.53356  61.20452
      14  62.19646  60.34191         14.79232   8.840170  64.53356  61.20452  59.88116  60.48095  59.85936  59.47930  64.51176  60.20287
      14  62.17465  59.33988         14.80370   8.840170  64.51176  60.20287  59.85936  59.47930  59.83754  58.47688  64.48995  59.20045
      14  62.15283  58.33707         14.81509   8.840170  64.48995  59.20045  59.83754  58.47688  59.81571  57.47369  64.46811  58.19726
      14  62.13099  57.33349         14.82649   8.840170  64.46811  58.19726  59.81571  57.47369  59.79386  56.46973  64.44626  57.19330
      14  62.10913  56.32914         14.83790   8.840170  64.44626  57.19330  59.79386  56.46973  59.77199  55.46499  64.42440  56.18856
      14  62.08725  55.32402         14.84932   8.840170  64.42440  56.18856  59.77199  55.46499  59.75011  54.45948  64.40251  55.18305
      14  62.06536  54.31812         14.86075   8.840170  64.40251  55.18305  59.75011  54.45948  59.72821  53.45320  64.38061  54.17677
      14  62.04345  53.31145         14.87218   8.840170  64.38061  54.17677  59.72821  53.45320  59.70629  52.44614  64.35870  53.16971
      14  62.02153  52.30401         14.88363   8.840170  64.35870  53.16971  59.70629  52.44614  59.68436  51.43831  64.33676  52.16188
      14  61.99958  51.29579         14.89508   8.840170  64.33676  52.16188  59.68436  51.43831  59.66241  50.42970  64.31481  51.15327
      14  61.97762  50.28679         14.90654   8.840170  64.31481  51.15327  59.66241  50.42970  59.64044  49.42031  64.29284  50.14388
      14  61.95565  49.27702         14.91801   8.840170  64.29284  50.14388  59.64044  49.42031  59.61845  48.41015  64.27086  49.13372
      14  61.93365  48.26647         14.92949   8.840170  64.27086  49.13372  59.61845  48.41015  59.59645  47.39921  64.24885  48.12278
      14  61.91164  47.25514         14.94098   8.840170  64.24885  48.12278  59.59645  47.39921  59.57443  46.38750  64.22684  47.11107
      14  61.88962  46.24303         14.95248   8.840170  64.22684  47.11107  59.57443  46.38750  59.55240  45.37500  64.20480  46.09857
      14  61.86757  45.23015         14.96399   8.840170  64.20480  46.09857  59.55240  45.37500  59.53034  44.36173  64.18275  45.08530
      14  61.84551  44.21649         14.97550   8.840170  64.18275  45.08530  59.53034  44.36173  59.50828  43.34767  64.16068  44.07124
      14  61.82343  43.20204         14.98702   8.840170  64.16068  44.07124  59.50828  43.34767  59.48619  42.33284  64.13859  43.05641
      14  61.80134  42.18682         14.99856   8.840170  64.13859  43.05641  59.48619  42.33284  59.46408  41.31722  64.11649  42.04080
      14  61.77923  41.17081         15.01010   8.840170  64.11649  42.04080  59.46408  41.31722  59.44196  40.30083  64.09437  41.02440
      14  61.75710  40.15402         15.02165   8.840170  64.09437  41.02440  59.44196  40.30083  59.41983  39.28365  64.07223  40.00722
      14  61.73495  39.13645         15.03321   8.840170  64.07223  40.00722  59.41983  39.28365  59.39767  38.26569  64.05007  38.98926
      14  61.71279  38.11810         15.04478   8.840170  64.05007  38.98926  59.39767  38.26569  59.37550  37.24694  64.02790  37.97051
      14  61.69061  37.09896         15.05636   8.840170  64.02790  37.97051  59.37550  37.24694  59.35331  36.22741  64.00571  36.95098
      14  61.66841  36.07904         15.06794   8.840170  64.00571  36.95098  59.35331  36.22741  59.33111  35.20710  63.98351  35.93067
      14  61.64620  35.05834         15.07954   8.840170  63.98351  35.93067  59.33111  35.20710  59.30888  34.18600  63.96128  34.90957
      14  61.62396  34.03685         15.09114   8.840170  63.96128  34.90957  59.30888  34.18600  59.28664  33.16412  63.93904  33.88769
      14  61.60171  33.01457         15.10275   8.840170  63.93904  33.88769  59.28664  33.16412  59.26438  32.14145  63.91679  32.86502
      14  61.57945  31.99150         15.11438   8.840170  63.91679  32.86502  59.26438  32.14145  59.24211  31.11799  63.89451  31.84156
      14  61.55717  30.96765         15.12601   8.840170  63.89451  31.84156  59.24211  31.11799  59.21982  30.09374  63.87222  30.81731
      14  61.53487  29.94301         15.13765   8.840170  63.87222  30.81731  59.21982  30.09374  59.19751  29.06871  63.84991  29.79228
      14  61.51255  28.91758         15.14930   8.840170  63.84991  29.79228  59.19751  29.06871  59.17518  28.04289  63.82759  28.76646
      14  61.49021  27.89137         15.16095   8.840170  63.82759  28.76646  59.17518  28.04289  59.15284  27.01628  63.80524  27.73985
      14  61.46786  26.86436         15.17262   8.840170  63.80524  27.73985  59.15284  27.01628  59.13048  25.98888  63.78288  26.71245
      14  61.44549  25.83656         15.18430   8.840170  63.78288  26.71245  59.13048  25.98888  59.10810  24.96068  63.76051  25.68425
      14  61.42311  24.80798         15.19598   8.840170  63.76051  25.68425  59.10810  24.96068  59.08571  23.93170  63.73811  24.65527
      14  61.40070  23.77860         15.20767   8.840170  63.73811  24.65527  59.08571  23.93170  59.06330  22.90192  63.71570  23.62549
      14  61.37828  22.74843         15.21938   8.840170  63.71570  23.62549  59.06330  22.90192  59.04087  21.87136  63.69327  22.59493
      14  61.35585  21.71746         15.23109   8.840170  63.69327  22.59493  59.04087  21.87136  59.01842  20.84000  63.67082  21.56357
      14  61.33339  20.68570         15.24281   8.840170  63.67082  21.56357  59.01842  20.84000  58.99596  19.80784  63.64836  20.53141
      14  61.31092  19.65315         15.25454   8.840170  63.64836  20.53141  58.99596  19.80784  58.97348  18.77489  63.62588  19.49846
      14  61.28843  18.61981         15.26628   8.840170  63.62588  19.49846  58.97348  18.77489  58.95098  17.74115  63.60338  18.46472
      14  61.26592  17.58566         15.27803   8.840170  63.60338  18.46472  58.95098  17.74115  58.92846  16.70661  63.58087  17.43018
      14  61.24340  16.55073         15.28978   8.840170  63.58087  17.43018  58.92846  16.70661  58.90593  15.67127  63.55833  16.39484
      14  61.22086  15.51499         15.30155   8.840170  63.55833  16.39484  58.90593  15.67127  58.88338  14.63514  63.53578  15.35871
      14  61.19830  14.47846         15.31332   8.840170  63.53578  15.35871  58.88338  14.63514  58.86081  13.59821  63.51322  14.32178
      14  61.17572  13.44113         15.32511   8.840170  63.51322  14.32178  58.86081  13.59821  58.83823  12.56049  63.49063  13.28406
      14  61.15313  12.40301         15.33690   8.840170  63.49063  13.28406  58.83823  12.56049  58.81563  11.52196  63.46803  12.24553
      14  61.13052  11.36408         15.34870   8.840170  63.46803  12.24553  58.81563  11.52196  58.79301  10.48264  63.44541  11.20621
      14  61.10789  10.32436         15.36051   8.840170  63.44541  11.20621  58.79301  10.48264  58.77037   9.44251  63.42277  10.16608
      14  61.08524   9.28383         15.37233   8.840170  63.42277  10.16608  58.77037   9.44251  58.74771   8.40159  63.40012   9.12516
      14  61.06258   8.24251         15.38416   8.840170  63.40012   9.12516  58.74771   8.40159  58.72504   7.35986  63.37745   8.08343
      14  61.03990   7.20038         15.39600   8.840170  63.37745   8.08343  58.72504   7.35986  58.70235   6.31733  63.35476   7.04090
      14  61.01720   6.15745         15.40785   8.840170  63.35476   7.04090  58.70235   6.31733  58.67965   5.27400  63.33205   5.99757
      14  60.99449   5.11372         15.41971   8.840170  63.33205   5.99757  58.67965   5.27400  58.65692   4.22987  63.30933   4.95344
      14  60.97175   4.06919         15.43157   8.840170  63.30933   4.95344  58.65692   4.22987  58.63418   3.18493  63.28658   3.90850
      14  60.94900   3.02385         15.44345   8.840170  63.28658   3.90850  58.63418   3.18493  58.61142   2.13919  63.26382   2.86276
      14  60.92623   1.97770         15.45533   8.840170  63.26382   2.86276  58.61142   2.13919  58.58864   1.09265  63.24105   1.81622
      14  60.90345   0.93076         15.46722   8.840170  63.24105   1.81622  58.58864   1.09265  58.56585   0.04530  63.21825   0.76887
      13  48.80053 127.69861         15.07954   9.519680  51.13415 128.56010  46.49066 127.78141  46.46691 126.83711  51.11040 127.61580
      13  48.77677 126.75394         15.09114   9.519680  51.11040 127.61580  46.46691 126.83711  46.44315 125.89208  51.08664 126.67077
      13  48.75300 125.80855         15.10275   9.519680  51.08664 126.67077  46.44315 125.89208  46.41936 124.94633  51.06286 125.72502
      13  48.72921 124.86243         15.11438   9.519680  51.06286 125.72502  46.41936 124.94633  46.39556 123.99984  51.03906 124.77854
      13  48.70540 123.91558         15.12601   9.519680  51.03906 124.77854  46.39556 123.99984  46.37174 123.05263  51.01524 123.83133
      13  48.68157 122.96801         15.13765   9.519680  51.01524 123.83133  46.37174 123.05263  46.34790 122.10469  50.99140 122.88339
      13  48.65772 122.01970         15.14930   9.519680  50.99140 122.88339  46.34790 122.10469  46.32405 121.15602  50.96754 121.93472
      13  48.63386 121.07067         15.16095   9.519680  50.96754 121.93472  46.32405 121.15602  46.30017 120.20662  50.94367 120.98532
      13  48.60997 120.12090         15.17262   9.519680  50.94367 120.98532  46.30017 120.20662  46.27628 119.25649  50.91977 120.03519
      13  48.58607 119.17041         15.18430   9.519680  50.91977 120.03519  46.27628 119.25649  46.25237 118.30563  50.89586 119.08433
      13  48.56215 118.21918         15.19598   9.519680  50.89586 119.08433  46.25237 118.30563  46.22844 117.35404  50.87193 118.13273
      13  48.53821 117.26722         15.20767   9.519680  50.87193 118.13273  46.22844 117.35404  46.20449 116.40171  50.84799 117.18041
      13  48.51425 116.31453         15.21938   9.519680  50.84799 117.18041  46.20449 116.40171  46.18052 115.44866  50.82402 116.22735
      13  48.49028 115.36111         15.23109   9.519680  50.82402 116.22735  46.18052 115.44866  46.15654 114.49486  50.80003 115.27356
      13  48.46628 114.40695         15.24281   9.519680  50.80003 115.27356  46.15654 114.49486  46.13254 113.54034  50.77603 114.31903
      13  48.44227 113.45206         15.25454   9.519680  50.77603 114.31903  46.13254 113.54034  46.10851 112.58508  50.75201 113.36377
      13  48.41824 112.49643         15.26628   9.519680  50.75201 113.36377  46.10851 112.58508  46.08447 111.62908  50.72797 112.40778
      13  48.39419 111.54007         15.27803   9.519680  50.72797 112.40778  46.08447 111.62908  46.06041 110.67235  50.70391 111.45105
      13  48.37012 110.58297         15.28978   9.519680  50.70391 111.45105  46.06041 110.67235  46.03634 109.71489  50.67983 110.49358
      13  48.34604 109.62513         15.30155   9.519680  50.67983 110.49358  46.03634 109.71489  46.01224 108.75668  50.65574 109.53538
      13  48.32193 108.66656         15.31332   9.519680  50.65574 109.53538  46.01224 108.75668  45.98813 107.79774  50.63162 108.57644
      13  48.29781 107.70725         15.32511   9.519680  50.63162 108.57644  45.98813 107.79774  45.96399 106.83806  50.60749 107.61676
      13  48.27366 106.74720         15.33690   9.519680  50.60749 107.61676  45.96399 106.83806  45.93984 105.87764  50.58334 106.65634
      13  48.24950 105.78641         15.34870   9.519680  50.58334 106.65634  45.93984 105.87764  45.91567 104.91649  50.55917 105.69518
      13  48.22532 104.82489         15.36051   9.519680  50.55917 105.69518  45.91567 104.91649  45.89148 103.95459  50.53498 104.73329
      13  48.20113 103.86262         15.37233   9.519680  50.53498 104.73329  45.89148 103.95459  45.86728 102.99196  50.51077 103.77065
      13  48.17691 102.89961         15.38416   9.519680  50.51077 103.77065  45.86728 102.99196  45.84305 102.02858  50.48654 102.80727
      13  48.15267 101.93587         15.39600   9.519680  50.48654 102.80727  45.84305 102.02858  45.81880 101.06446  50.46230 101.84315
      13  48.12842 100.97138         15.40785   9.519680  50.46230 101.84315  45.81880 101.06446  45.79454 100.09960  50.43804 100.87829
      13  48.10415 100.00614         15.41971   9.519680  50.43804 100.87829  45.79454 100.09960  45.77026  99.13400  50.41375  99.91269
      13  48.07986  99.04017         15.43157   9.519680  50.41375  99.91269  45.77026  99.13400  45.74596  98.16765  50.38945  98.94634
      13  48.05555  98.07345         15.44345   9.519680  50.38945  98.94634  45.74596  98.16765  45.72164  97.20056  50.36513  97.97925
      13  48.03122  97.10599         15.45533   9.519680  50.36513  97.97925  45.72164  97.20056  45.69730  96.23273  50.34080  97.01142
      13  48.00687  96.13778         15.46722   9.519680  50.34080  97.01142  45.69730  96.23273  45.67294  95.26415  50.31644  96.04284
      13  47.98250  95.16883         15.47913   9.519680  50.31644  96.04284  45.67294  95.26415  45.64857  94.29482  50.29206  95.07352
      13  47.95812  94.19914         15.49104   9.519680  50.29206  95.07352  45.64857  94.29482  45.62417  93.32475  50.26767  94.10345
      13  47.93371  93.22869         15.50296   9.519680  50.26767  94.10345  45.62417  93.32475  45.59976  92.35394  50.24326  93.13263
      13  47.90929  92.25750         15.51489   9.519680  50.24326  93.13263  45.59976  92.35394  45.57533  91.38237  50.21882  92.16107
      13  47.88485  91.28557         15.52683   9.519680  50.21882  92.16107  45.57533  91.38237  45.55088  90.41006  50.19437  91.18876
      13  47.86039  90.31288         15.53878   9.519680  50.19437  91.18876  45.55088  90.41006  45.52641  89.43700  50.16990  90.21570
      13  47.83591  89.33945         15.55073   9.519680  50.16990  90.21570  45.52641  89.43700  45.50192  88.46320  50.14541  89.24189
      13  47.81141  88.36526         15.56270   9.519680  50.14541  89.24189  45.50192  88.46320  45.47741  87.48864  50.12091  88.26733
      13  47.78690  87.39033         15.57468   9.519680  50.12091  88.26733  45.47741  87.48864  45.45289  86.51333  50.09638  87.29202
      13  47.76236  86.41465         15.58666   9.519680  50.09638  87.29202  45.45289  86.51333  45.42834  85.53727  50.07184  86.31597
      13  47.73781  85.43822         15.59866   9.519680  50.07184  86.31597  45.42834  85.53727  45.40378  84.56046  50.04727  85.33916
      13  47.71323  84.46103         15.61066   9.519680  50.04727  85.33916  45.40378  84.56046  45.37920  83.58290  50.02269  84.36160
      13  47.68864  83.48309         15.62267   9.519680  50.02269  84.36160  45.37920  83.58290  45.35459  82.60459  49.99809  83.38328
      13  47.66403  82.50440         15.63469   9.519680  49.99809  83.38328  45.35459  82.60459  45.32997  81.62552  49.97347  82.40422
      13  47.63940  81.52496         15.64673   9.519680  49.97347  82.40422  45.32997  81.62552  45.30533  80.64570  49.94883  81.42440
      13  47.61475  80.54477         15.65877   9.519680  49.94883  81.42440  45.30533  80.64570  45.28068  79.66513  49.92417  80.44383
      13  47.59008  79.56381         15.67082   9.519680  49.92417  80.44383  45.28068  79.66513  45.25600  78.68380  49.89949  79.46250
      13  47.56540  78.58211         15.68288   9.519680  49.89949  79.46250  45.25600  78.68380  45.23130  77.70172  49.87480  78.48041
      13  47.54069  77.59965         15.69494   9.519680  49.87480  78.48041  45.23130  77.70172  45.20659  76.71888  49.85008  77.49758
      13  47.51597  76.61643         15.70702   9.519680  49.85008  77.49758  45.20659  76.71888  45.18185  75.73529  49.82535  76.51398
      13  47.49122  75.63246         15.71911   9.519680  49.82535  76.51398  45.18185  75.73529  45.15710  74.75093  49.80059  75.52963
      13  47.46646  74.64773         15.73121   9.519680  49.80059  75.52963  45.15710  74.75093  45.13233  73.76583  49.77582  74.54452
      13  47.44168  73.66224         15.74331   9.519680  49.77582  74.54452  45.13233  73.76583  45.10753  72.77996  49.75103  73.55865
      13  47.41688  72.67599         15.75543   9.519680  49.75103  73.55865  45.10753  72.77996  45.08272  71.79333  49.72622  72.57203
      13  47.39206  71.68899         15.76755   9.519680  49.72622  72.57203  45.08272  71.79333  45.05789  70.80595  49.70139  71.58464
      13  47.36722  70.70122         15.77968   9.519680  49.70139  71.58464  45.05789  70.80595  45.03304  69.81780  49.67654  70.59650
      13  47.34236  69.71270         15.79183   9.519680  49.67654  70.59650  45.03304  69.81780  45.00818  68.82890  49.65167  69.60759
      13  47.31748  68.72341         15.80398   9.519680  49.65167  69.60759  45.00818  68.82890  44.98329  67.83923  49.62678  68.61792
      13  47.29258  67.73336         15.81614   9.519680  49.62678  68.61792  44.98329  67.83923  44.95838  66.84880  49.60188  67.62749
      13  47.26767  66.74255         15.82831   9.519680  49.60188  67.62749  44.95838  66.84880  44.93346  65.85761  49.57695  66.63630
      13  47.24273  65.75098         15.84049   9.519680  49.57695  66.63630  44.93346  65.85761  44.90851  64.86566  49.55201  65.64435
      13  47.21778  64.75865         15.85268   9.519680  49.55201  65.64435  44.90851  64.86566  44.88355  63.87294  49.52704  64.65164
      13  47.19280  63.76555         15.86488   9.519680  49.52704  64.65164  44.88355  63.87294  44.85857  62.87946  49.50206  63.65815
      13  47.16781  62.77169         15.87709   9.519680  49.50206  63.65815  44.85857  62.87946  44.83356  61.88522  49.47706  62.66391
      13  47.14280  61.77706         15.88931   9.519680  49.47706  62.66391  44.83356  61.88522  44.80854  60.89021  49.45204  61.66890
      13  47.11777  60.78166         15.90153   9.519680  49.45204  61.66890  44.80854  60.89021  44.78350  59.89443  49.42700  60.67312
      13  47.09272  59.78551         15.91377   9.519680  49.42700  60.67312  44.78350  59.89443  44.75844  58.89789  49.40194  59.67658
      13  47.06765  58.78858         15.92602   9.519680  49.40194  59.67658  44.75844  58.89789  44.73336  57.90058  49.37686  58.67927
      13  47.04256  57.79089         15.93827   9.519680  49.37686  58.67927  44.73336  57.90058  44.70826  56.90250  49.35176  57.68120
      13  47.01745  56.79243         15.95054   9.519680  49.35176  57.68120  44.70826  56.90250  44.68314  55.90366  49.32664  56.68235
      13  46.99232  55.79320         15.96281   9.519680  49.32664  56.68235  44.68314  55.90366  44.65801  54.90405  49.30150  55.68274
      13  46.96718  54.79320         15.97509   9.519680  49.30150  55.68274  44.65801  54.90405  44.63285  53.90366  49.27635  54.68236
      13  46.94201  53.79243         15.98739   9.519680  49.27635  54.68236  44.63285  53.90366  44.60767  52.90251  49.25117  53.68121
      13  46.91682  52.79090         15.99969   9.519680  49.25117  53.68121  44.60767  52.90251  44.58248  51.90059  49.22597  52.67928
      13  46.89162  51.78859         16.01200   9.519680  49.22597  52.67928  44.58248  51.90059  44.55726  50.89790  49.20076  51.67659
      13  46.86639  50.78551         16.02432   9.519680  49.20076  51.67659  44.55726  50.89790  44.53203  49.89443  49.17552  50.67313
      13  46.84115  49.78166         16.03666   9.519680  49.17552  50.67313  44.53203  49.89443  44.50678  48.89019  49.15027  49.66889
      13  46.81589  48.77704         16.04900   9.519680  49.15027  49.66889  44.50678  48.89019  44.48150  47.88518  49.12500  48.66388
      13  46.79061  47.77164         16.06135   9.519680  49.12500  48.66388  44.48150  47.88518  44.45621  46.87940  49.09971  47.65809
      13  46.76530  46.76547         16.07371   9.519680  49.09971  47.65809  44.45621  46.87940  44.43090  45.87284  49.07439  46.65154
      13  46.73998  45.75852         16.08608   9.519680  49.07439  46.65154  44.43090  45.87284  44.40557  44.86551  49.04906  45.64421
      13  46.71464  44.75080         16.09845   9.519680  49.04906  45.64421  44.40557  44.86551  44.38022  43.85740  49.02371  44.63610
      13  46.68928  43.74231         16.11084   9.519680  49.02371  44.63610  44.38022  43.85740  44.35485  42.84852  48.99834  43.62722
      13  46.66390  42.73304         16.12324   9.519680  48.99834  43.62722  44.35485  42.84852  44.32946  41.83886  48.97295  42.61756
      13  46.63850  41.72299         16.13565   9.519680  48.97295  42.61756  44.32946  41.83886  44.30405  40.82843  48.94754  41.60712
      13  46.61308  40.71217         16.14806   9.519680  48.94754  41.60712  44.30405  40.82843  44.27862  39.81721  48.92211  40.59591
      13  46.58764  39.70056         16.16049   9.519680  48.92211  40.59591  44.27862  39.81721  44.25317  38.80522  48.89666  39.58391
      13  46.56218  38.68818         16.17293   9.519680  48.89666  39.58391  44.25317  38.80522  44.22770  37.79245  48.87120  38.57114
      13  46.53671  37.67502         16.18537   9.519680  48.87120  38.57114  44.22770  37.79245  44.20221  36.77890  48.84571  37.55759
      13  46.51121  36.66108         16.19783   9.519680  48.84571  37.55759  44.20221  36.77890  44.17671  35.76457  48.82020  36.54326
      13  46.48569  35.64636         16.21029   9.519680  48.82020  36.54326  44.17671  35.76457  44.15118  34.74946  48.79467  35.52815
      13  46.46015  34.63086         16.22277   9.519680  48.79467  35.52815  44.15118  34.74946  44.12563  33.73357  48.76913  34.51226
      13  46.43460  33.61458         16.23525   9.519680  48.76913  34.51226  44.12563  33.73357  44.10007  32.71689  48.74356  33.49559
      13  46.40902  32.59751         16.24774   9.519680  48.74356  33.49559  44.10007  32.71689  44.07448  31.69944  48.71798  32.47813
      13  46.38343  31.57967         16.26025   9.519680  48.71798  32.47813  44.07448  31.69944  44.04888  30.68120  48.69237  31.45989
      13  46.35781  30.56104         16.27276   9.519680  48.69237  31.45989  44.04888  30.68120  44.02325  29.66218  48.66674  30.44087
      13  46.33217  29.54162         16.28528   9.519680  48.66674  30.44087  44.02325  29.66218  43.99760  28.64237  48.64110  29.42107
      13  46.30652  28.52142         16.29781   9.519680  48.64110  29.42107  43.99760  28.64237  43.97194  27.62178  48.61543  28.40047
      13  46.28084  27.50044         16.31035   9.519680  48.61543  28.40047  43.97194  27.62178  43.94626  26.60040  48.58975  27.37910
      13  46.25515  26.47867         16.32291   9.519680  48.58975  27.37910  43.94626  26.60040  43.92055  25.57824  48.56405  26.35693
      13  46.22944  25.45611         16.33547   9.519680  48.56405  26.35693  43.92055  25.57824  43.89483  24.55529  48.53832  25.33399
      13  46.20370  24.43277         16.34804   9.519680  48.53832  25.33399  43.89483  24.55529  43.86908  23.53156  48.51258  24.31025
      13  46.17795  23.40864         16.36062   9.519680  48.51258  24.31025  43.86908  23.53156  43.84332  22.50703  48.48681  23.28573
      13  46.15217  22.38372         16.37321   9.519680  48.48681  23.28573  43.84332  22.50703  43.81754  21.48172  48.46103  22.26041
      13  46.12638  21.35801         16.38581   9.519680  48.46103  22.26041  43.81754  21.48172  43.79173  20.45562  48.43523  21.23431
      13  46.10057  20.33152         16.39842   9.519680  48.43523  21.23431  43.79173  20.45562  43.76591  19.42873  48.40940  20.20742
      13  46.07473  19.30423         16.41104   9.519680  48.40940  20.20742  43.76591  19.42873  43.74007  18.40104  48.38356  19.17974
      13  46.04888  18.27616         16.42366   9.519680  48.38356  19.17974  43.74007  18.40104  43.71420  17.37257  48.35770  18.15127
      13  46.02301  17.24729         16.43630   9.519680  48.35770  18.15127  43.71420  17.37257  43.68832  16.34331  48.33181  17.12200
      13  45.99712  16.21763         16.44895   9.519680  48.33181  17.12200  43.68832  16.34331  43.66242  15.31325  48.30591  16.09195
      13  45.97120  15.18718         16.46161   9.519680  48.30591  16.09195  43.66242  15.31325  43.63649  14.28240  48.27999  15.06110
      13  45.94527  14.15593         16.47428   9.519680  48.27999  15.06110  43.63649  14.28240  43.61055  13.25076  48.25405  14.02946
      13  45.91932  13.12389         16.48695   9.519680  48.25405  14.02946  43.61055  13.25076  43.58459  12.21833  48.22808  12.99702
      13  45.89334  12.09106         16.49964   9.519680  48.22808  12.99702  43.58459  12.21833  43.55861  11.18510  48.20210  11.96379
      13  45.86735  11.05743         16.51234   9.519680  48.20210  11.96379  43.55861  11.18510  43.53260  10.15107  48.17610  10.92977
      13  45.84134  10.02301         16.52504   9.519680  48.17610  10.92977  43.53260  10.15107  43.50658   9.11625  48.15008   9.89495
      13  45.81531   8.98779         16.53776   9.519680  48.15008   9.89495  43.50658   9.11625  43.48054   8.08063  48.12403   8.85933
      13  45.78925   7.95177         16.55049   9.519680  48.12403   8.85933  43.48054   8.08063  43.45448   7.04422  48.09797   7.82292
      13  45.76318   6.91496         16.56322   9.519680  48.09797   7.82292  43.45448   7.04422  43.42839   6.00701  48.07189   6.78570
      13  45.73709   5.87735         16.57597   9.519680  48.07189   6.78570  43.42839   6.00701  43.40229   4.96900  48.04578   5.74769
      13  45.71098   4.83894         16.58872   9.519680  48.04578   5.74769  43.40229   4.96900  43.37617   3.93019  48.01966   4.70889
      13  45.68484   3.79973         16.60149   9.519680  48.01966   4.70889  43.37617   3.93019  43.35002   2.89058  47.99352   3.66928
      13  45.65869   2.75973         16.61427   9.519680  47.99352   3.66928  43.35002   2.89058  43.32386   1.85018  47.96735   2.62887
      13  45.63252   1.71892         16.62705   9.519680  47.96735   2.62887  43.32386   1.85018  43.29768   0.80897  47.94117   1.58766
      13  45.60632   0.67731         16.63985   9.519680  47.94117   1.58766  43.29768   0.80897  43.27147  -0.23304  47.91497   0.54565
      12  32.10344 127.93919         16.31035  10.281000  34.43747 128.83666  29.80473 127.99633  29.76940 127.04172  34.40214 127.88204
      12  32.06809 126.98420         16.32291  10.281000  34.40214 127.88204  29.76940 127.04172  29.73404 126.08637  34.36678 126.92669
      12  32.03272 126.02848         16.33547  10.281000  34.36678 126.92669  29.73404 126.08637  29.69865 125.13028  34.33139 125.97060
      12  31.99732 125.07203         16.34804  10.281000  34.33139 125.97060  29.69865 125.13028  29.66324 124.17346  34.29598 125.01378
      12  31.96189 124.11484         16.36062  10.281000  34.29598 125.01378  29.66324 124.17346  29.62780 123.21590  34.26054 124.05622
      12  31.92643 123.15692         16.37321  10.281000  34.26054 124.05622  29.62780 123.21590  29.59233 122.25761  34.22507 123.09793
      12  31.89095 122.19825         16.38581  10.281000  34.22507 123.09793  29.59233 122.25761  29.55683 121.29857  34.18957 122.13890
      12  31.85544 121.23885         16.39842  10.281000  34.18957 122.13890  29.55683 121.29857  29.52131 120.33880  34.15405 121.17913
      12  31.81990 120.27871         16.41104  10.281000  34.15405 121.17913  29.52131 120.33880  29.48576 119.37829  34.11850 120.21862
      12  31.78434 119.31783         16.42366  10.281000  34.11850 120.21862  29.48576 119.37829  29.45018 118.41705  34.08292 119.25737
      12  31.74875 118.35621         16.43630  10.281000  34.08292 119.25737  29.45018 118.41705  29.41458 117.45506  34.04731 118.29538
      12  31.71313 117.39386         16.44895  10.281000  34.04731 118.29538  29.41458 117.45506  29.37894 116.49233  34.01168 117.33266
      12  31.67748 116.43076         16.46161  10.281000  34.01168 117.33266  29.37894 116.49233  29.34328 115.52886  33.97602 116.36919
      12  31.64181 115.46692         16.47428  10.281000  33.97602 116.36919  29.34328 115.52886  29.30760 114.56465  33.94033 115.40498
      12  31.60611 114.50234         16.48695  10.281000  33.94033 115.40498  29.30760 114.56465  29.27188 113.59970  33.90462 114.44002
      12  31.57038 113.53701         16.49964  10.281000  33.90462 114.44002  29.27188 113.59970  29.23614 112.63401  33.86888 113.47433
      12  31.53462 112.57095         16.51234  10.281000  33.86888 113.47433  29.23614 112.63401  29.20037 111.66757  33.83311 112.50789
      12  31.49884 111.60414         16.52504  10.281000  33.83311 112.50789  29.20037 111.66757  29.16457 110.70039  33.79731 111.54071
      12  31.46303 110.63659         16.53776  10.281000  33.79731 111.54071  29.16457 110.70039  29.12874 109.73246  33.76148 110.57278
      12  31.42719 109.66829         16.55049  10.281000  33.76148 110.57278  29.12874 109.73246  29.09289 108.76379  33.72563 109.60411
      12  31.39132 108.69924         16.56322  10.281000  33.72563 109.60411  29.09289 108.76379  29.05701 107.79437  33.68975 108.63470
      12  31.35543 107.72945         16.57597  10.281000  33.68975 108.63470  29.05701 107.79437  29.02110 106.82421  33.65384 107.66454
      12  31.31950 106.75892         16.58872  10.281000  33.65384 107.66454  29.02110 106.82421  28.98517 105.85330  33.61791 106.69363
      12  31.28356 105.78764         16.60149  10.281000  33.61791 106.69363  28.98517 105.85330  28.94920 104.88165  33.58194 105.72197
      12  31.24758 104.81561         16.61427  10.281000  33.58194 105.72197  28.94920 104.88165  28.91321 103.90924  33.54595 104.74957
      12  31.21157 103.84283         16.62705  10.281000  33.54595 104.74957  28.91321 103.90924  28.87720 102.93609  33.50993 103.77642
      12  31.17554 102.86930         16.63985  10.281000  33.50993 103.77642  28.87720 102.93609  28.84115 101.96219  33.47389 102.80252
      12  31.13948 101.89503         16.65265  10.281000  33.47389 102.80252  28.84115 101.96219  28.80507 100.98754  33.43781 101.82787
      12  31.10339 100.92000         16.66547  10.281000  33.43781 101.82787  28.80507 100.98754  28.76897 100.01214  33.40171 100.85247
      12  31.06728  99.94423         16.67829  10.281000  33.40171 100.85247  28.76897 100.01214  28.73284  99.03599  33.36558  99.87631
      12  31.03113  98.96770         16.69112  10.281000  33.36558  99.87631  28.73284  99.03599  28.69669  98.05909  33.32942  98.89941
      12  30.99496  97.99042         16.70397  10.281000  33.32942  98.89941  28.69669  98.05909  28.66050  97.08144  33.29324  97.92176
      12  30.95876  97.01239         16.71682  10.281000  33.29324  97.92176  28.66050  97.08144  28.62429  96.10303  33.25703  96.94335
      12  30.92254  96.03361         16.72969  10.281000  33.25703  96.94335  28.62429  96.10303  28.58805  95.12387  33.22078  95.96419
      12  30.88628  95.05408         16.74256  10.281000  33.22078  95.96419  28.58805  95.12387  28.55178  94.14396  33.18452  94.98428
      12  30.85000  94.07379         16.75544  10.281000  33.18452  94.98428  28.55178  94.14396  28.51548  93.16329  33.14822  94.00362
      12  30.81369  93.09274         16.76834  10.281000  33.14822  94.00362  28.51548  93.16329  28.47916  92.18187  33.11189  93.02220
      12  30.77735  92.11094         16.78124  10.281000  33.11189  93.02220  28.47916  92.18187  28.44280  91.19969  33.07554  92.04002
      12  30.74098  91.12839         16.79416  10.281000  33.07554  92.04002  28.44280  91.19969  28.40642  90.21676  33.03916  91.05709
      12  30.70459  90.14508         16.80708  10.281000  33.03916  91.05709  28.40642  90.21676  28.37001  89.23307  33.00275  90.07340
      12  30.66816  89.16101         16.82001  10.281000  33.00275  90.07340  28.37001  89.23307  28.33358  88.24863  32.96632  89.08895
      12  30.63171  88.17619         16.83296  10.281000  32.96632  89.08895  28.33358  88.24863  28.29711  87.26343  32.92985  88.10375
      12  30.59524  87.19061         16.84591  10.281000  32.92985  88.10375  28.29711  87.26343  28.26062  86.27746  32.89336  87.11779
      12  30.55873  86.20427         16.85887  10.281000  32.89336  87.11779  28.26062  86.27746  28.22410  85.29074  32.85684  86.13107
      12  30.52219  85.21717         16.87185  10.281000  32.85684  86.13107  28.22410  85.29074  28.18755  84.30327  32.82029  85.14359
      12  30.48563  84.22931         16.88483  10.281000  32.82029  85.14359  28.18755  84.30327  28.15097  83.31503  32.78371  84.15535
      12  30.44904  83.24069         16.89782  10.281000  32.78371  84.15535  28.15097  83.31503  28.11437  82.32603  32.74711  83.16635
      12  30.41242  82.25131         16.91083  10.281000  32.74711  83.16635  28.11437  82.32603  28.07773  81.33627  32.71047  82.17659
      12  30.37577  81.26117         16.92384  10.281000  32.71047  82.17659  28.07773  81.33627  28.04107  80.34574  32.67381  81.18607
      12  30.33910  80.27026         16.93686  10.281000  32.67381  81.18607  28.04107  80.34574  28.00438  79.35446  32.63712  80.19478
      12  30.30239  79.27860         16.94990  10.281000  32.63712  80.19478  28.00438  79.35446  27.96767  78.36241  32.60040  79.20274
      12  30.26566  78.28617         16.96294  10.281000  32.60040  79.20274  27.96767  78.36241  27.93092  77.36960  32.56366  78.20993
      12  30.22890  77.29298         16.97599  10.281000  32.56366  78.20993  27.93092  77.36960  27.89414  76.37603  32.52688  77.21635
      12  30.19211  76.29902         16.98906  10.281000  32.52688  77.21635  27.89414  76.37603  27.85734  75.38169  32.49008  76.22201
      12  30.15529  75.30430         17.00213  10.281000  32.49008  76.22201  27.85734  75.38169  27.82051  74.38658  32.45325  75.22691
      12  30.11845  74.30881         17.01521  10.281000  32.45325  75.22691  27.82051  74.38658  27.78365  73.39071  32.41639  74.23104
      12  30.08158  73.31256         17.02831  10.281000  32.41639  74.23104  27.78365  73.39071  27.74676  72.39408  32.37950  73.23440
      12  30.04467  72.31554         17.04141  10.281000  32.37950  73.23440  27.74676  72.39408  27.70985  71.39667  32.34258  72.23700
      12  30.00774  71.31775         17.05452  10.281000  32.34258  72.23700  27.70985  71.39667  27.67290  70.39850  32.30564  71.23883
      12  29.97078  70.31919         17.06765  10.281000  32.30564  71.23883  27.67290  70.39850  27.63593  69.39956  32.26867  70.23989
      12  29.93380  69.31987         17.08078  10.281000  32.26867  70.23989  27.63593  69.39956  27.59893  68.39985  32.23167  69.24018
      12  29.89678  68.31978         17.09393  10.281000  32.23167  69.24018  27.59893  68.39985  27.56190  67.39938  32.19464  68.23970
      12  29.85974  67.31892         17.10708  10.281000  32.19464  68.23970  27.56190  67.39938  27.52484  66.39813  32.15758  67.23845
      12  29.82266  66.31728         17.12025  10.281000  32.15758  67.23845  27.52484  66.39813  27.48775  65.39611  32.12049  66.23644
      12  29.78556  65.31488         17.13342  10.281000  32.12049  66.23644  27.48775  65.39611  27.45064  64.39332  32.08337  65.23365
      12  29.74843  64.31171         17.14660  10.281000  32.08337  65.23365  27.45064  64.39332  27.41349  63.38976  32.04623  64.23009
      12  29.71127  63.30776         17.15980  10.281000  32.04623  64.23009  27.41349  63.38976  27.37632  62.38543  32.00906  63.22576
      12  29.67409  62.30304         17.17300  10.281000  32.00906  63.22576  27.37632  62.38543  27.33912  61.38033  31.97186  62.22065
      12  29.63687  61.29755         17.18622  10.281000  31.97186  62.22065  27.33912  61.38033  27.30189  60.37445  31.93463  61.21477
      12  29.59963  60.29128         17.19944  10.281000  31.93463  61.21477  27.30189  60.37445  27.26463  59.36779  31.89737  60.20812
      12  29.56236  59.28424         17.21268  10.281000  31.89737  60.20812  27.26463  59.36779  27.22734  58.36037  31.86008  59.20069
      12  29.52505  58.27643         17.22593  10.281000  31.86008  59.20069  27.22734  58.36037  27.19003  57.35216  31.82276  58.19249
      12  29.48772  57.26784         17.23918  10.281000  31.82276  58.19249  27.19003  57.35216  27.15268  56.34318  31.78542  57.18351
      12  29.45036  56.25847         17.25245  10.281000  31.78542  57.18351  27.15268  56.34318  27.11531  55.33343  31.74805  56.17375
      12  29.41298  55.24833         17.26572  10.281000  31.74805  56.17375  27.11531  55.33343  27.07791  54.32290  31.71064  55.16322
      12  29.37556  54.23740         17.27901  10.281000  31.71064  55.16322  27.07791  54.32290  27.04048  53.31159  31.67321  54.15191
      12  29.33811  53.22571         17.29231  10.281000  31.67321  54.15191  27.04048  53.31159  27.00302  52.29950  31.63575  53.13982
      12  29.30064  52.21323         17.30561  10.281000  31.63575  53.13982  27.00302  52.29950  26.96553  51.28663  31.59826  52.12696
      12  29.26314  51.19997         17.31893  10.281000  31.59826  52.12696  26.96553  51.28663  26.92801  50.27299  31.56075  51.11331
      12  29.22561  50.18594         17.33226  10.281000  31.56075  51.11331  26.92801  50.27299  26.89046  49.25856  31.52320  50.09888
      12  29.18804  49.17112         17.34560  10.281000  31.52320  50.09888  26.89046  49.25856  26.85289  48.24335  31.48563  49.08368
      12  29.15045  48.15552         17.35894  10.281000  31.48563  49.08368  26.85289  48.24335  26.81528  47.22737  31.44802  48.06769
      12  29.11284  47.13914         17.37230  10.281000  31.44802  48.06769  26.81528  47.22737  26.77765  46.21060  31.41039  47.05092
      12  29.07519  46.12198         17.38567  10.281000  31.41039  47.05092  26.77765  46.21060  26.73999  45.19304  31.37273  46.03337
      12  29.03751  45.10404         17.39905  10.281000  31.37273  46.03337  26.73999  45.19304  26.70230  44.17471  31.33504  45.01503
      12  28.99981  44.08531         17.41244  10.281000  31.33504  45.01503  26.70230  44.17471  26.66458  43.15559  31.29732  43.99591
      12  28.96207  43.06580         17.42584  10.281000  31.29732  43.99591  26.66458  43.15559  26.62683  42.13569  31.25957  42.97601
      12  28.92431  42.04550         17.43925  10.281000  31.25957  42.97601  26.62683  42.13569  26.58905  41.11500  31.22179  41.95532
      12  28.88652  41.02442         17.45267  10.281000  31.22179  41.95532  26.58905  41.11500  26.55124  40.09352  31.18398  40.93385
      12  28.84869  40.00256         17.46610  10.281000  31.18398  40.93385  26.55124  40.09352  26.51341  39.07126  31.14615  39.91159
      12  28.81084  38.97990         17.47954  10.281000  31.14615  39.91159  26.51341  39.07126  26.47554  38.04822  31.10828  38.88854
      12  28.77296  37.95646         17.49299  10.281000  31.10828  38.88854  26.47554  38.04822  26.43765  37.02438  31.07039  37.86471
      12  28.73505  36.93224         17.50645  10.281000  31.07039  37.86471  26.43765  37.02438  26.39972  35.99976  31.03246  36.84009
      12  28.69712  35.90722         17.51992  10.281000  31.03246  36.84009  26.39972  35.99976  26.36177  34.97435  30.99451  35.81468
      12  28.65915  34.88142         17.53340  10.281000  30.99451  35.81468  26.36177  34.97435  26.32379  33.94815  30.95653  34.78848
      12  28.62115  33.85482         17.54690  10.281000  30.95653  34.78848  26.32379  33.94815  26.28578  32.92116  30.91852  33.76149
      12  28.58313  32.82744         17.56040  10.281000  30.91852  33.76149  26.28578  32.92116  26.24774  31.89339  30.88048  32.73371
      12  28.54507  31.79926         17.57391  10.281000  30.88048  32.73371  26.24774  31.89339  26.20967  30.86482  30.84241  31.70514
      12  28.50699  30.77030         17.58744  10.281000  30.84241  31.70514  26.20967  30.86482  26.17157  29.83545  30.80431  30.67578
      12  28.46887  29.74054         17.60097  10.281000  30.80431  30.67578  26.17157  29.83545  26.13344  28.80530  30.76618  29.64563
      12  28.43073  28.70999         17.61451  10.281000  30.76618  29.64563  26.13344  28.80530  26.09528  27.77436  30.72802  28.61468
      12  28.39256  27.67865         17.62807  10.281000  30.72802  28.61468  26.09528  27.77436  26.05710  26.74262  30.68983  27.58294
      12  28.35436  26.64651         17.64163  10.281000  30.68983  27.58294  26.05710  26.74262  26.01888  25.71008  30.65162  26.55041
      12  28.31612  25.61358         17.65521  10.281000  30.65162  26.55041  26.01888  25.71008  25.98063  24.67675  30.61337  25.51708
      12  28.27786  24.57985         17.66880  10.281000  30.61337  25.51708  25.98063  24.67675  25.94236  23.64263  30.57510  24.48295
      12  28.23957  23.54533         17.68239  10.281000  30.57510  24.48295  25.94236  23.64263  25.90405  22.60771  30.53679  23.44804
      12  28.20125  22.51002         17.69600  10.281000  30.53679  23.44804  25.90405  22.60771  25.86572  21.57200  30.49846  22.41232
      12  28.16291  21.47390         17.70962  10.281000  30.49846  22.41232  25.86572  21.57200  25.82735  20.53548  30.46009  21.37581
      12  28.12453  20.43699         17.72325  10.281000  30.46009  21.37581  25.82735  20.53548  25.78896  19.49817  30.42170  20.33850
      12  28.08612  19.39928         17.73688  10.281000  30.42170  20.33850  25.78896  19.49817  25.75054  18.46007  30.38328  19.30039
      12  28.04768  18.36077         17.75053  10.281000  30.38328  19.30039  25.75054  18.46007  25.71209  17.42116  30.34482  18.26148
      12  28.00921  17.32147         17.76419  10.281000  30.34482  18.26148  25.71209  17.42116  25.67360  16.38145  30.30634  17.22178
      12  27.97072  16.28136         17.77786  10.281000  30.30634  17.22178  25.67360  16.38145  25.63509  15.34094  30.26783  16.18127
      12  27.93219  15.24045         17.79154  10.281000  30.26783  16.18127  25.63509  15.34094  25.59655  14.29964  30.22929  15.13996
      12  27.89363  14.19874         17.80523  10.281000  30.22929  15.13996  25.59655  14.29964  25.55798  13.25753  30.19072  14.09785
      12  27.85505  13.15624         17.81894  10.281000  30.19072  14.09785  25.55798  13.25753  25.51938  12.21462  30.15212  13.05494
      12  27.81643  12.11292         17.83265  10.281000  30.15212  13.05494  25.51938  12.21462  25.48075  11.17090  30.11349  12.01123
      12  27.77779  11.06881         17.84637  10.281000  30.11349  12.01123  25.48075  11.17090  25.44209  10.12639  30.07483  10.96671
      12  27.73911  10.02389         17.86010  10.281000  30.07483  10.96671  25.44209  10.12639  25.40340   9.08107  30.03614   9.92139
      12  27.70041   8.97817         17.87385  10.281000  30.03614   9.92139  25.40340   9.08107  25.36468   8.03494  29.99742   8.87527
      12  27.66167   7.93164         17.88760  10.281000  29.99742   8.87527  25.36468   8.03494  25.32593   6.98801  29.95867   7.82834
      12  27.62291   6.88431         17.90137  10.281000  29.95867   7.82834  25.32593   6.98801  25.28715   5.94028  29.91989   6.78060
      12  27.58412   5.83617         17.91514  10.281000  29.91989   6.78060  25.28715   5.94028  25.24834   4.89174  29.88108   5.73206
      12  27.54529   4.78723         17.92893  10.281000  29.88108   5.73206  25.24834   4.89174  25.20950   3.84239  29.84224   4.68271
      12  27.50644   3.73747         17.94273  10.281000  29.84224   4.68271  25.20950   3.84239  25.17064   2.79223  29.80337   3.63256
      12  27.46755   2.68691         17.95653  10.281000  29.80337   3.63256  25.17064   2.79223  25.13174   1.74127  29.76447   2.58159
      12  27.42864   1.63554         17.97035  10.281000  29.76447   2.58159  25.13174   1.74127  25.09281   0.68950  29.72555   1.52982
      12  27.38970   0.58337         17.98418  10.281000  29.72555   1.52982  25.09281   0.68950  25.05385  -0.36309  29.68659   0.47724
      11  12.38102 127.78187         17.72325  11.124100  14.71386 128.70214  10.09399 127.79374  10.04818 126.86160  14.66805 127.77000
      11  12.33520 126.84937         17.73688  11.124100  14.66805 127.77000  10.04818 126.86160  10.00234 125.92873  14.62222 126.83714
      11  12.28934 125.91614         17.75053  11.124100  14.62222 126.83714  10.00234 125.92873   9.95647 124.99515  14.57634 125.90356
      11  12.24345 124.98221         17.76419  11.124100  14.57634 125.90356   9.95647 124.99515   9.91056 124.06086  14.53043 124.96926
      11  12.19752 124.04755         17.77786  11.124100  14.53043 124.96926   9.91056 124.06086   9.86461 123.12584  14.48449 124.03424
      11  12.15156 123.11217         17.79154  11.124100  14.48449 124.03424   9.86461 123.12584   9.81863 122.19010  14.43851 123.09850
      11  12.10556 122.17607         17.80523  11.124100  14.43851 123.09850   9.81863 122.19010   9.77262 121.25365  14.39249 122.16205
      11  12.05953 121.23926         17.81894  11.124100  14.39249 122.16205   9.77262 121.25365   9.72657 120.31647  14.34644 121.22487
      11  12.01346 120.30172         17.83265  11.124100  14.34644 121.22487   9.72657 120.31647   9.68048 119.37857  14.30035 120.28697
      11  11.96736 119.36346         17.84637  11.124100  14.30035 120.28697   9.68048 119.37857   9.63436 118.43995  14.25423 119.34835
      11  11.92122 118.42448         17.86010  11.124100  14.25423 119.34835   9.63436 118.43995   9.58820 117.50061  14.20807 118.40901
      11  11.87504 117.48477         17.87385  11.124100  14.20807 118.40901   9.58820 117.50061   9.54201 116.56054  14.16188 117.46894
      11  11.82883 116.54435         17.88760  11.124100  14.16188 117.46894   9.54201 116.56054   9.49578 115.61975  14.11565 116.52815
      11  11.78258 115.60320         17.90137  11.124100  14.11565 116.52815   9.49578 115.61975   9.44952 114.67824  14.06939 115.58664
      11  11.73630 114.66132         17.91514  11.124100  14.06939 115.58664   9.44952 114.67824   9.40322 113.73600  14.02309 114.64440
      11  11.68998 113.71872         17.92893  11.124100  14.02309 114.64440   9.40322 113.73600   9.35688 112.79304  13.97675 113.70144
      11  11.64363 112.77539         17.94273  11.124100  13.97675 113.70144   9.35688 112.79304   9.31051 111.84935  13.93038 112.75775
      11  11.59724 111.83134         17.95653  11.124100  13.93038 112.75775   9.31051 111.84935   9.26410 110.90494  13.88397 111.81334
      11  11.55082 110.88657         17.97035  11.124100  13.88397 111.81334   9.26410 110.90494   9.21766 109.95979  13.83753 110.86820
      11  11.50436 109.94106         17.98418  11.124100  13.83753 110.86820   9.21766 109.95979   9.17118 109.01393  13.79105 109.92233
      11  11.45786 108.99483         17.99802  11.124100  13.79105 109.92233   9.17118 109.01393   9.12467 108.06733  13.74454 108.97573
      11  11.41133 108.04787         18.01187  11.124100  13.74454 108.97573   9.12467 108.06733   9.07812 107.12001  13.69799 108.02841
      11  11.36476 107.10018         18.02573  11.124100  13.69799 108.02841   9.07812 107.12001   9.03153 106.17195  13.65140 107.08035
      11  11.31816 106.15176         18.03960  11.124100  13.65140 107.08035   9.03153 106.17195   8.98491 105.22317  13.60478 106.13157
      11  11.27152 105.20261         18.05348  11.124100  13.60478 106.13157   8.98491 105.22317   8.93825 104.27365  13.55813 105.18206
      11  11.22484 104.25273         18.06738  11.124100  13.55813 105.18206   8.93825 104.27365   8.89156 103.32341  13.51143 104.23181
      11  11.17813 103.30212         18.08128  11.124100  13.51143 104.23181   8.89156 103.32341   8.84483 102.37244  13.46470 103.28084
      11  11.13139 102.35078         18.09519  11.124100  13.46470 103.28084   8.84483 102.37244   8.79807 101.42073  13.41794 102.32913
      11  11.08460 101.39871         18.10912  11.124100  13.41794 102.32913   8.79807 101.42073   8.75127 100.46829  13.37114 101.37669
      11  11.03778 100.44590         18.12305  11.124100  13.37114 101.37669   8.75127 100.46829   8.70443  99.51512  13.32430 100.42352
      11  10.99093  99.49236         18.13700  11.124100  13.32430 100.42352   8.70443  99.51512   8.65756  98.56121  13.27743  99.46961
      11  10.94404  98.53809         18.15096  11.124100  13.27743  99.46961   8.65756  98.56121   8.61065  97.60657  13.23052  98.51497
      11  10.89711  97.58308         18.16492  11.124100  13.23052  98.51497   8.61065  97.60657   8.56370  96.65120  13.18357  97.55960
      11  10.85015  96.62734         18.17890  11.124100  13.18357  97.55960   8.56370  96.65120   8.51672  95.69509  13.13659  96.60349
      11  10.80315  95.67086         18.19289  11.124100  13.13659  96.60349   8.51672  95.69509   8.46970  94.73824  13.08957  95.64664
      11  10.75611  94.71365         18.20689  11.124100  13.08957  95.64664   8.46970  94.73824   8.42265  93.78066  13.04252  94.68906
      11  10.70904  93.75570         18.22090  11.124100  13.04252  94.68906   8.42265  93.78066   8.37556  92.82234  12.99543  93.73074
      11  10.66193  92.79701         18.23492  11.124100  12.99543  93.73074   8.37556  92.82234   8.32843  91.86328  12.94830  92.77169
      11  10.61479  91.83759         18.24896  11.124100  12.94830  92.77169   8.32843  91.86328   8.28127  90.90349  12.90114  91.81189
      11  10.56761  90.87742         18.26300  11.124100  12.90114  91.81189   8.28127  90.90349   8.23407  89.94296  12.85394  90.85136
      11  10.52039  89.91652         18.27705  11.124100  12.85394  90.85136   8.23407  89.94296   8.18684  88.98169  12.80671  89.89009
      11  10.47314  88.95488         18.29112  11.124100  12.80671  89.89009   8.18684  88.98169   8.13956  88.01967  12.75944  88.92807
      11  10.42585  87.99250         18.30519  11.124100  12.75944  88.92807   8.13956  88.01967   8.09226  87.05692  12.71213  87.96532
      11  10.37852  87.02938         18.31928  11.124100  12.71213  87.96532   8.09226  87.05692   8.04491  86.09343  12.66478  87.00183
      11  10.33116  86.06551         18.33338  11.124100  12.66478  87.00183   8.04491  86.09343   7.99753  85.12920  12.61740  86.03760
      11  10.28376  85.10091         18.34748  11.124100  12.61740  86.03760   7.99753  85.12920   7.95011  84.16422  12.56999  85.07262
      11  10.23632  84.13556         18.36160  11.124100  12.56999  85.07262   7.95011  84.16422   7.90266  83.19850  12.52253  84.10690
      11  10.18885  83.16947         18.37573  11.124100  12.52253  84.10690   7.90266  83.19850   7.85517  82.23204  12.47504  83.14044
      11  10.14134  82.20264         18.38987  11.124100  12.47504  83.14044   7.85517  82.23204   7.80764  81.26483  12.42752  82.17323
      11  10.09380  81.23506         18.40403  11.124100  12.42752  82.17323   7.80764  81.26483   7.76008  80.29688  12.37995  81.20528
      11  10.04622  80.26674         18.41819  11.124100  12.37995  81.20528   7.76008  80.29688   7.71248  79.32819  12.33235  80.23659
      11   9.99860  79.29767         18.43236  11.124100  12.33235  80.23659   7.71248  79.32819   7.66484  78.35875  12.28472  79.26715
      11   9.95094  78.32785         18.44655  11.124100  12.28472  79.26715   7.66484  78.35875   7.61717  77.38856  12.23704  78.29696
      11   9.90325  77.35730         18.46074  11.124100  12.23704  78.29696   7.61717  77.38856   7.56946  76.41763  12.18933  77.32603
      11   9.85552  76.38599         18.47495  11.124100  12.18933  77.32603   7.56946  76.41763   7.52172  75.44595  12.14159  76.35435
      11   9.80776  75.41393         18.48916  11.124100  12.14159  76.35435   7.52172  75.44595   7.47393  74.47352  12.09380  75.38192
      11   9.75996  74.44113         18.50339  11.124100  12.09380  75.38192   7.47393  74.47352   7.42611  73.50034  12.04598  74.40875
      11   9.71212  73.46758         18.51763  11.124100  12.04598  74.40875   7.42611  73.50034   7.37826  72.52642  11.99813  73.43482
      11   9.66424  72.49328         18.53188  11.124100  11.99813  73.43482   7.37826  72.52642   7.33036  71.55175  11.95023  72.46015
      11   9.61633  71.51823         18.54614  11.124100  11.95023  72.46015   7.33036  71.55175   7.28243  70.57632  11.90230  71.48472
      11   9.56838  70.54243         18.56041  11.124100  11.90230  71.48472   7.28243  70.57632   7.23446  69.60015  11.85433  70.50855
      11   9.52040  69.56588         18.57470  11.124100  11.85433  70.50855   7.23446  69.60015   7.18646  68.62322  11.80633  69.53162
      11   9.47237  68.58858         18.58899  11.124100  11.80633  69.53162   7.18646  68.62322   7.13842  67.64554  11.75829  68.55394
      11   9.42431  67.61053         18.60329  11.124100  11.75829  68.55394   7.13842  67.64554   7.09034  66.66711  11.71021  67.57551
      11   9.37622  66.63172         18.61761  11.124100  11.71021  67.57551   7.09034  66.66711   7.04222  65.68793  11.66210  66.59633
      11   9.32808  65.65216         18.63194  11.124100  11.66210  66.59633   7.04222  65.68793   6.99407  64.70799  11.61394  65.61639
      11   9.27991  64.67185         18.64627  11.124100  11.61394  65.61639   6.99407  64.70799   6.94588  63.72730  11.56575  64.63570
      11   9.23171  63.69078         18.66062  11.124100  11.56575  64.63570   6.94588  63.72730   6.89766  62.74585  11.51753  63.65426
      11   9.18346  62.70895         18.67498  11.124100  11.51753  63.65426   6.89766  62.74585   6.84939  61.76365  11.46926  62.67205
      11   9.13518  61.72638         18.68935  11.124100  11.46926  62.67205   6.84939  61.76365   6.80109  60.78070  11.42096  61.68910
      11   9.08686  60.74304         18.70374  11.124100  11.42096  61.68910   6.80109  60.78070   6.75275  59.79698  11.37263  60.70538
      11   9.03850  59.75895         18.71813  11.124100  11.37263  60.70538   6.75275  59.79698   6.70438  58.81251  11.32425  59.72091
      11   8.99011  58.77410         18.73253  11.124100  11.32425  59.72091   6.70438  58.81251   6.65597  57.82729  11.27584  58.73569
      11   8.94168  57.78849         18.74695  11.124100  11.27584  58.73569   6.65597  57.82729   6.60752  56.84130  11.22739  57.74970
      11   8.89321  56.80213         18.76137  11.124100  11.22739  57.74970   6.60752  56.84130   6.55903  55.85456  11.17890  56.76296
      11   8.84470  55.81500         18.77581  11.124100  11.17890  56.76296   6.55903  55.85456   6.51051  54.86705  11.13038  55.77545
      11   8.79616  54.82712         18.79026  11.124100  11.13038  55.77545   6.51051  54.86705   6.46195  53.87879  11.08182  54.78719
      11   8.74758  53.83848         18.80472  11.124100  11.08182  54.78719   6.46195  53.87879   6.41335  52.88976  11.03322  53.79817
      11   8.69896  52.84907         18.81919  11.124100  11.03322  53.79817   6.41335  52.88976   6.36471  51.89998  10.98458  52.80838
      11   8.65031  51.85891         18.83367  11.124100  10.98458  52.80838   6.36471  51.89998   6.31604  50.90943  10.93591  51.81783
      11   8.60162  50.86798         18.84816  11.124100  10.93591  51.81783   6.31604  50.90943   6.26733  49.91812  10.88720  50.82652
      11   8.55289  49.87629         18.86267  11.124100  10.88720  50.82652   6.26733  49.91812   6.21858  48.92605  10.83845  49.83445
      11   8.50412  48.88383         18.87718  11.124100  10.83845  49.83445   6.21858  48.92605   6.16979  47.93322  10.78966  48.84162
      11   8.45532  47.89062         18.89171  11.124100  10.78966  48.84162   6.16979  47.93322   6.12097  46.93962  10.74084  47.84802
      11   8.40647  46.89663         18.90625  11.124100  10.74084  47.84802   6.12097  46.93962   6.07211  45.94525  10.69198  46.85365
      11   8.35759  45.90189         18.92080  11.124100  10.69198  46.85365   6.07211  45.94525   6.02321  44.95012  10.64308  45.85852
      11   8.30868  44.90638         18.93536  11.124100  10.64308  45.85852   6.02321  44.95012   5.97427  43.95423  10.59414  44.86263
      11   8.25972  43.91010         18.94993  11.124100  10.59414  44.86263   5.97427  43.95423   5.92530  42.95757  10.54517  43.86597
      11   8.21073  42.91305         18.96451  11.124100  10.54517  43.86597   5.92530  42.95757   5.87629  41.96014  10.49616  42.86854
      11   8.16170  41.91524         18.97911  11.124100  10.49616  42.86854   5.87629  41.96014   5.82724  40.96194  10.44711  41.87034
      11   8.11263  40.91666         18.99371  11.124100  10.44711  41.87034   5.82724  40.96194   5.77815  39.96298  10.39802  40.87138
      11   8.06352  39.91731         19.00833  11.124100  10.39802  40.87138   5.77815  39.96298   5.72902  38.96324  10.34890  39.87165
      11   8.01438  38.91719         19.02295  11.124100  10.34890  39.87165   5.72902  38.96324   5.67986  37.96274  10.29973  38.87114
      11   7.96520  37.91631         19.03759  11.124100  10.29973  38.87114   5.67986  37.96274   5.63066  36.96147  10.25053  37.86987
      11   7.91598  36.91465         19.05224  11.124100  10.25053  37.86987   5.63066  36.96147   5.58142  35.95943  10.20129  36.86783
      11   7.86672  35.91222         19.06690  11.124100  10.20129  36.86783   5.58142  35.95943   5.53215  34.95661  10.15202  35.86501
      11   7.81742  34.90902         19.08158  11.124100  10.15202  35.86501   5.53215  34.95661   5.48283  33.95303  10.10270  34.86143
      11   7.76809  33.90505         19.09626  11.124100  10.10270  34.86143   5.48283  33.95303   5.43348  32.94867  10.05335  33.85707
      11   7.71872  32.90031         19.11095  11.124100  10.05335  33.85707   5.43348  32.94867   5.38409  31.94354  10.00396  32.85194
      11   7.66931  31.89479         19.12566  11.124100  10.00396  32.85194   5.38409  31.94354   5.33466  30.93764   9.95453  31.84604
      11   7.61986  30.88850         19.14038  11.124100   9.95453  31.84604   5.33466  30.93764   5.28519  29.93096   9.90507  30.83936
      11   7.57038  29.88143         19.15511  11.124100   9.90507  30.83936   5.28519  29.93096   5.23569  28.92351   9.85556  29.83191
      11   7.52085  28.87359         19.16985  11.124100   9.85556  29.83191   5.23569  28.92351   5.18615  27.91528   9.80602  28.82368
      11   7.47129  27.86498         19.18460  11.124100   9.80602  28.82368   5.18615  27.91528   5.13657  26.90627   9.75644  27.81467
      11   7.42169  26.85558         19.19936  11.124100   9.75644  27.81467   5.13657  26.90627   5.08695  25.89649   9.70682  26.80489
      11   7.37206  25.84541         19.21414  11.124100   9.70682  26.80489   5.08695  25.89649   5.03729  24.88594   9.65716  25.79434
      11   7.32238  24.83447         19.22892  11.124100   9.65716  25.79434   5.03729  24.88594   4.98760  23.87460   9.60747  24.78300
      11   7.27267  23.82274         19.24372  11.124100   9.60747  24.78300   4.98760  23.87460   4.93786  22.86249   9.55773  23.77089
      11   7.22291  22.81024         19.25853  11.124100   9.55773  23.77089   4.93786  22.86249   4.88809  21.84960   9.50796  22.75800
      11   7.17312  21.79696         19.27335  11.124100   9.50796  22.75800   4.88809  21.84960   4.83828  20.83592   9.45815  21.74432
      11   7.12329  20.78290         19.28818  11.124100   9.45815  21.74432   4.83828  20.83592   4.78843  19.82147   9.40830  20.72987
      11   7.07343  19.76806         19.30302  11.124100   9.40830  20.72987   4.78843  19.82147   4.73855  18.80624   9.35842  19.71464
      11   7.02352  18.75243         19.31788  11.124100   9.35842  19.71464   4.73855  18.80624   4.68862  17.79023   9.30849  18.69863
      11   6.97358  17.73603         19.33274  11.124100   9.30849  18.69863   4.68862  17.79023   4.63866  16.77343   9.25853  17.68183
      11   6.92359  16.71884         19.34762  11.124100   9.25853  17.68183   4.63866  16.77343   4.58866  15.75585   9.20853  16.66425
      11   6.87357  15.70087         19.36251  11.124100   9.20853  16.66425   4.58866  15.75585   4.53862  14.73749   9.15849  15.64589
      11   6.82351  14.68212         19.37741  11.124100   9.15849  15.64589   4.53862  14.73749   4.48854  13.71835   9.10841  14.62675
      11   6.77341  13.66258         19.39232  11.124100   9.10841  14.62675   4.48854  13.71835   4.43842  12.69842   9.05829  13.60682
      11   6.72328  12.64226         19.40724  11.124100   9.05829  13.60682   4.43842  12.69842   4.38826  11.67771   9.00814  12.58611
      11   6.67310  11.62116         19.42218  11.124100   9.00814  12.58611   4.38826  11.67771   4.33807  10.65621   8.95794  11.56461
      11   6.62289  10.59926         19.43712  11.124100   8.95794  11.56461   4.33807  10.65621   4.28784   9.63392   8.90771  10.54232
      11   6.57264   9.57659         19.45208  11.124100   8.90771  10.54232   4.28784   9.63392   4.23756   8.61085   8.85744   9.51925
      11   6.52235   8.55312         19.46705  11.124100   8.85744   9.51925   4.23756   8.61085   4.18725   7.58699   8.80713   8.49539
      11   6.47202   7.52887         19.48203  11.124100   8.80713   8.49539   4.18725   7.58699   4.13690   6.56234   8.75678   7.47074
      11   6.42165   6.50383         19.49702  11.124100   8.75678   7.47074   4.13690   6.56234   4.08652   5.53691   8.70639   6.44531
      11   6.37124   5.47800         19.51203  11.124100   8.70639   6.44531   4.08652   5.53691   4.03609   4.51068   8.65596   5.41908
      11   6.32079   4.45138         19.52704  11.124100   8.65596   5.41908   4.03609   4.51068   3.98562   3.48367   8.60550   4.39207
      11   6.27031   3.42397         19.54207  11.124100   8.60550   4.39207   3.98562   3.48367   3.93512   2.45586   8.55499   3.36426
      11   6.21978   2.39577         19.55710  11.124100   8.55499   3.36426   3.93512   2.45586   3.88458   1.42727   8.50445   2.33567
      11   6.16922   1.36678         19.57215  11.124100   8.50445   2.33567   3.88458   1.42727   3.83399   0.39788   8.45387   1.30628
      11   6.11862   0.33699         19.58722  11.124100   8.45387   1.30628   3.83399   0.39788   3.78337  -0.63230   8.40325   0.27610
