\version S15.0 wavsamp for SH
\wavsamp processing time 14:56:24 PST 10/24/2006
\character channelID = 1
| order |x_center |y_center |   wavelength   |  angle   |   x0    |   y0    |   x1    |   y1    |   x2    |   y2    |   x3    |   y3    |
| int   |  real   |  real   |    real        |   real   |  real   |  real   |  real   |  real   |  real   |  real   |  real   |  real   |
      20 120.49755 128.33631          9.86350   2.775983 123.29963 128.94459 117.68122 128.67225 117.69550 127.72794 123.31390 128.00045
      20 120.51186 127.39171          9.87109   2.777752 123.31390 128.00045 117.69550 127.72794 117.70985 126.78287 123.32824 127.05556
      20 120.52624 126.44635          9.87869   2.779524 123.32824 127.05556 117.70985 126.78287 117.72427 125.83704 123.34265 126.10990
      20 120.54069 125.50023          9.88629   2.781298 123.34265 126.10990 117.72427 125.83704 117.73876 124.89045 123.35713 125.16349
      20 120.55521 124.55334          9.89390   2.783075 123.35713 125.16349 117.73876 124.89045 117.75332 123.94310 123.37168 124.21631
      20 120.56980 123.60570          9.90151   2.784854 123.37168 124.21631 117.75332 123.94310 117.76795 122.99499 123.38630 123.26837
      20 120.58447 122.65729          9.90913   2.786635 123.38630 123.26837 117.76795 122.99499 117.78265 122.04611 123.40099 122.31967
      20 120.59920 121.70811          9.91675   2.788420 123.40099 122.31967 117.78265 122.04611 117.79742 121.09647 123.41576 121.37020
      20 120.61400 120.75818          9.92439   2.790206 123.41576 121.37020 117.79742 121.09647 117.81226 120.14606 123.43059 120.41997
      20 120.62887 119.80748          9.93202   2.791996 123.43059 120.41997 117.81226 120.14606 117.82718 119.19489 123.44549 119.46897
      20 120.64382 118.85601          9.93967   2.793787 123.44549 119.46897 117.82718 119.19489 117.84216 118.24295 123.46047 118.51721
      20 120.65883 117.90378          9.94731   2.795582 123.46047 118.51721 117.84216 118.24295 117.85722 117.29025 123.47552 117.56468
      20 120.67392 116.95078          9.95497   2.797378 123.47552 117.56468 117.85722 117.29025 117.87234 116.33678 123.49063 116.61139
      20 120.68908 115.99701          9.96263   2.799178 123.49063 116.61139 117.87234 116.33678 117.88754 115.38254 123.50583 115.65733
      20 120.70431 115.04248          9.97030   2.800980 123.50583 115.65733 117.88754 115.38254 117.90281 114.42753 123.52109 114.70250
      20 120.71961 114.08717          9.97797   2.802784 123.52109 114.70250 117.90281 114.42753 117.91815 113.47176 123.53642 113.74690
      20 120.73498 113.13110          9.98565   2.804591 123.53642 113.74690 117.91815 113.47176 117.93357 112.51521 123.55183 112.79053
      20 120.75043 112.17426          9.99333   2.806401 123.55183 112.79053 117.93357 112.51521 117.94905 111.55789 123.56730 111.83339
      20 120.76595 111.21665         10.00102   2.808213 123.56730 111.83339 117.94905 111.55789 117.96461 110.59981 123.58285 110.87548
      20 120.78154 110.25826         10.00872   2.810028 123.58285 110.87548 117.96461 110.59981 117.98024 109.64095 123.59848 109.91680
      20 120.79720 109.29911         10.01642   2.811845 123.59848 109.91680 117.98024 109.64095 117.99595 108.68132 123.61417 108.95735
      20 120.81294 108.33918         10.02413   2.813665 123.61417 108.95735 117.99595 108.68132 118.01173 107.72092 123.62994 107.99713
      20 120.82875 107.37848         10.03184   2.815488 123.62994 107.99713 118.01173 107.72092 118.02758 106.75974 123.64578 107.03613
      20 120.84463 106.41701         10.03956   2.817313 123.64578 107.03613 118.02758 106.75974 118.04350 105.79779 123.66169 106.07436
      20 120.86058 105.45476         10.04729   2.819140 123.66169 106.07436 118.04350 105.79779 118.05949 104.83506 123.67768 105.11181
      20 120.87661 104.49173         10.05502   2.820971 123.67768 105.11181 118.05949 104.83506 118.07556 103.87156 123.69374 104.14849
      20 120.89271 103.52794         10.06276   2.822803 123.69374 104.14849 118.07556 103.87156 118.09171 102.90728 123.70988 103.18439
      20 120.90889 102.56336         10.07050   2.824639 123.70988 103.18439 118.09171 102.90728 118.10792 101.94223 123.72608 102.21952
      20 120.92514 101.59801         10.07825   2.826477 123.72608 102.21952 118.10792 101.94223 118.12421 100.97640 123.74237 101.25387
      20 120.94146 100.63188         10.08600   2.828318 123.74237 101.25387 118.12421 100.97640 118.14058 100.00979 123.75872 100.28744
      20 120.95786  99.66497         10.09377   2.830161 123.75872 100.28744 118.14058 100.00979 118.15702  99.04240 123.77515  99.32023
      20 120.97433  98.69728         10.10153   2.832007 123.77515  99.32023 118.15702  99.04240 118.17353  98.07423 123.79166  98.35224
      20 120.99088  97.72881         10.10931   2.833855 123.79166  98.35224 118.17353  98.07423 118.19012  97.10529 123.80823  97.38348
      20 121.00750  96.75957         10.11709   2.835706 123.80823  97.38348 118.19012  97.10529 118.20678  96.13556 123.82489  96.41393
      20 121.02419  95.78954         10.12487   2.837560 123.82489  96.41393 118.20678  96.13556 118.22352  95.16505 123.84161  95.44360
      20 121.04096  94.81873         10.13266   2.839417 123.84161  95.44360 118.22352  95.16505 118.24033  94.19376 123.85842  94.47249
      20 121.05781  93.84714         10.14046   2.841276 123.85842  94.47249 118.24033  94.19376 118.25721  93.22168 123.87529  93.50060
      20 121.07473  92.87476         10.14826   2.843137 123.87529  93.50060 118.25721  93.22168 118.27418  92.24883 123.89225  92.52793
      20 121.09172  91.90161         10.15607   2.845002 123.89225  92.52793 118.27418  92.24883 118.29121  91.27518 123.90928  91.55447
      20 121.10879  90.92766         10.16389   2.846868 123.90928  91.55447 118.29121  91.27518 118.30833  90.30076 123.92638  90.58022
      20 121.12594  89.95294         10.17171   2.848738 123.92638  90.58022 118.30833  90.30076 118.32551  89.32555 123.94356  89.60520
      20 121.14316  88.97742         10.17954   2.850610 123.94356  89.60520 118.32551  89.32555 118.34278  88.34955 123.96081  88.62938
      20 121.16046  88.00113         10.18737   2.852485 123.96081  88.62938 118.34278  88.34955 118.36012  87.37277 123.97815  87.65278
      20 121.17783  87.02404         10.19521   2.854363 123.97815  87.65278 118.36012  87.37277 118.37754  86.39519 123.99555  86.67540
      20 121.19528  86.04617         10.20306   2.856243 123.99555  86.67540 118.37754  86.39519 118.39503  85.41684 124.01304  85.69722
      20 121.21281  85.06751         10.21091   2.858126 124.01304  85.69722 118.39503  85.41684 118.41260  84.43769 124.03060  84.71826
      20 121.23041  84.08806         10.21876   2.860012 124.03060  84.71826 118.41260  84.43769 118.43024  83.45775 124.04823  83.73851
      20 121.24809  83.10782         10.22663   2.861900 124.04823  83.73851 118.43024  83.45775 118.44797  82.47703 124.06595  82.75797
      20 121.26584  82.12679         10.23450   2.863791 124.06595  82.75797 118.44797  82.47703 118.46576  81.49551 124.08374  81.77664
      20 121.28368  81.14497         10.24237   2.865685 124.08374  81.77664 118.46576  81.49551 118.48364  80.51320 124.10160  80.79451
      20 121.30159  80.16236         10.25026   2.867581 124.10160  80.79451 118.48364  80.51320 118.50160  79.53010 124.11955  79.81160
      20 121.31958  79.17895         10.25814   2.869480 124.11955  79.81160 118.50160  79.53010 118.51963  78.54621 124.13757  78.82789
      20 121.33764  78.19476         10.26604   2.871382 124.13757  78.82789 118.51963  78.54621 118.53773  77.56152 124.15567  77.84339
      20 121.35578  77.20977         10.27394   2.873286 124.15567  77.84339 118.53773  77.56152 118.55592  76.57604 124.17384  76.85810
      20 121.37400  76.22398         10.28184   2.875193 124.17384  76.85810 118.55592  76.57604 118.57419  75.58977 124.19210  75.87201
      20 121.39230  75.23741         10.28976   2.877103 124.19210  75.87201 118.57419  75.58977 118.59253  74.60270 124.21043  74.88513
      20 121.41068  74.25003         10.29767   2.879016 124.21043  74.88513 118.59253  74.60270 118.61095  73.61483 124.22884  73.89745
      20 121.42913  73.26186         10.30560   2.880931 124.22884  73.89745 118.61095  73.61483 118.62945  72.62617 124.24733  72.90898
      20 121.44767  72.27290         10.31353   2.882849 124.24733  72.90898 118.62945  72.62617 118.64802  71.63671 124.26590  71.91971
      20 121.46628  71.28313         10.32146   2.884770 124.26590  71.91971 118.64802  71.63671 118.66668  70.64645 124.28455  70.92964
      20 121.48497  70.29257         10.32941   2.886693 124.28455  70.92964 118.66668  70.64645 118.68541  69.65540 124.30327  69.93877
      20 121.50374  69.30121         10.33736   2.888620 124.30327  69.93877 118.68541  69.65540 118.70423  68.66354 124.32208  68.94711
      20 121.52259  68.30905         10.34531   2.890549 124.32208  68.94711 118.70423  68.66354 118.72312  67.67089 124.34096  67.95464
      20 121.54152  67.31609         10.35327   2.892480 124.34096  67.95464 118.72312  67.67089 118.74209  66.67743 124.35992  66.96138
      20 121.56052  66.32233         10.36124   2.894415 124.35992  66.96138 118.74209  66.67743 118.76114  65.68318 124.37896  65.96731
      20 121.57961  65.32777         10.36921   2.896352 124.37896  65.96731 118.76114  65.68318 118.78028  64.68812 124.39809  64.97244
      20 121.59878  64.33240         10.37719   2.898292 124.39809  64.97244 118.78028  64.68812 118.79949  63.69226 124.41729  63.97677
      20 121.61802  63.33623         10.38518   2.900235 124.41729  63.97677 118.79949  63.69226 118.81878  62.69559 124.43657  62.98030
      20 121.63735  62.33926         10.39317   2.902180 124.43657  62.98030 118.81878  62.69559 118.83815  61.69812 124.45593  61.98302
      20 121.65675  61.34149         10.40117   2.904129 124.45593  61.98302 118.83815  61.69812 118.85760  60.69985 124.47537  60.98494
      20 121.67624  60.34291         10.40917   2.906080 124.47537  60.98494 118.85760  60.69985 118.87713  59.70077 124.49489  59.98605
      20 121.69581  59.34352         10.41718   2.908034 124.49489  59.98605 118.87713  59.70077 118.89674  58.70089 124.51449  58.98636
      20 121.71545  58.34333         10.42520   2.909990 124.51449  58.98636 118.89674  58.70089 118.91644  57.70020 124.53418  57.98586
      20 121.73518  57.34233         10.43322   2.911950 124.53418  57.98586 118.91644  57.70020 118.93621  56.69870 124.55394  56.98455
      20 121.75499  56.34053         10.44125   2.913912 124.55394  56.98455 118.93621  56.69870 118.95606  55.69639 124.57379  55.98244
      20 121.77488  55.33791         10.44928   2.915877 124.57379  55.98244 118.95606  55.69639 118.97600  54.69328 124.59371  54.97952
      20 121.79486  54.33449         10.45732   2.917845 124.59371  54.97952 118.97600  54.69328 118.99602  53.68936 124.61372  53.97579
      20 121.81491  53.33026         10.46537   2.919815 124.61372  53.97579 118.99602  53.68936 119.01612  52.68462 124.63381  52.97125
      20 121.83504  52.32522         10.47342   2.921789 124.63381  52.97125 119.01612  52.68462 119.03630  51.67908 124.65398  51.96590
      20 121.85526  51.31936         10.48148   2.923765 124.65398  51.96590 119.03630  51.67908 119.05656  50.67272 124.67423  50.95973
      20 121.87556  50.31270         10.48955   2.925744 124.67423  50.95973 119.05656  50.67272 119.07691  49.66555 124.69457  49.95276
      20 121.89594  49.30522         10.49762   2.927726 124.69457  49.95276 119.07691  49.66555 119.09733  48.65757 124.71499  48.94497
      20 121.91640  48.29693         10.50570   2.929711 124.71499  48.94497 119.09733  48.65757 119.11784  47.64878 124.73549  47.93637
      20 121.93695  47.28782         10.51378   2.931698 124.73549  47.93637 119.11784  47.64878 119.13844  46.63917 124.75607  46.92696
      20 121.95758  46.27791         10.52188   2.933689 124.75607  46.92696 119.13844  46.63917 119.15911  45.62875 124.77673  45.91673
      20 121.97829  45.26717         10.52997   2.935682 124.77673  45.91673 119.15911  45.62875 119.17987  44.61751 124.79748  44.90569
      20 121.99908  44.25562         10.53808   2.937678 124.79748  44.90569 119.17987  44.61751 119.20071  43.60545 124.81831  43.89383
      20 122.01996  43.24326         10.54618   2.939677 124.81831  43.89383 119.20071  43.60545 119.22163  42.59258 124.83923  42.88115
      20 122.04092  42.23008         10.55430   2.941679 124.83923  42.88115 119.22163  42.59258 119.24264  41.57889 124.86022  41.86766
      20 122.06197  41.21607         10.56242   2.943683 124.86022  41.86766 119.24264  41.57889 119.26373  40.56438 124.88130  40.85335
      20 122.08309  40.20126         10.57055   2.945691 124.88130  40.85335 119.26373  40.56438 119.28491  39.54906 124.90247  39.83822
      20 122.10430  39.18562         10.57868   2.947701 124.90247  39.83822 119.28491  39.54906 119.30616  38.53291 124.92372  38.82227
      20 122.12560  38.16916         10.58683   2.949714 124.92372  38.82227 119.30616  38.53291 119.32751  37.51594 124.94505  37.80550
      20 122.14698  37.15188         10.59497   2.951730 124.94505  37.80550 119.32751  37.51594 119.34893  36.49815 124.96647  36.78791
      20 122.16844  36.13378         10.60313   2.953749 124.96647  36.78791 119.34893  36.49815 119.37044  35.47955 124.98797  35.76950
      20 122.18999  35.11486         10.61128   2.955771 124.98797  35.76950 119.37044  35.47955 119.39204  34.46011 125.00955  34.75027
      20 122.21163  34.09512         10.61945   2.957796 125.00955  34.75027 119.39204  34.46011 119.41372  33.43986 125.03122  33.73021
      20 122.23334  33.07455         10.62762   2.959824 125.03122  33.73021 119.41372  33.43986 119.43549  32.41878 125.05298  32.70933
      20 122.25515  32.05316         10.63580   2.961854 125.05298  32.70933 119.43549  32.41878 119.45734  31.39688 125.07482  31.68763
      20 122.27703  31.03094         10.64398   2.963888 125.07482  31.68763 119.45734  31.39688 119.47927  30.37415 125.09674  30.66510
      20 122.29901  30.00790         10.65218   2.965924 125.09674  30.66510 119.47927  30.37415 119.50129  29.35059 125.11875  29.64174
      20 122.32107  28.98403         10.66037   2.967963 125.11875  29.64174 119.50129  29.35059 119.52340  28.32621 125.14085  28.61756
      20 122.34321  27.95934         10.66858   2.970005 125.14085  28.61756 119.52340  28.32621 119.54559  27.30101 125.16303  27.59256
      20 122.36544  26.93382         10.67679   2.972051 125.16303  27.59256 119.54559  27.30101 119.56787  26.27497 125.18530  26.56672
      20 122.38776  25.90747         10.68500   2.974099 125.18530  26.56672 119.56787  26.27497 119.59024  25.24811 125.20765  25.54006
      20 122.41016  24.88029         10.69322   2.976150 125.20765  25.54006 119.59024  25.24811 119.61269  24.22041 125.23010  24.51256
      20 122.43265  23.85228         10.70145   2.978203 125.23010  24.51256 119.61269  24.22041 119.63522  23.19189 125.25262  23.48424
      19 113.44622 128.18901         10.37719   2.875645 116.25109 128.80229 110.63317 128.52019 110.64137 127.57563 116.25928 127.85792
      19 113.45447 127.24417         10.38518   2.877582 116.25928 127.85792 110.64137 127.57563 110.64968 126.63031 116.26758 126.91280
      19 113.46282 126.29857         10.39317   2.879522 116.26758 126.91280 110.64968 126.63031 110.65809 125.68423 116.27599 125.96690
      19 113.47128 125.35220         10.40117   2.881465 116.27599 125.96690 110.65809 125.68423 110.66661 124.73739 116.28449 125.02025
      19 113.47985 124.40507         10.40917   2.883411 116.28449 125.02025 110.66661 124.73739 110.67523 123.78978 116.29311 124.07283
      19 113.48852 123.45717         10.41718   2.885359 116.29311 124.07283 110.67523 123.78978 110.68396 122.84141 116.30182 123.12465
      19 113.49729 122.50851         10.42520   2.887311 116.30182 123.12465 110.68396 122.84141 110.69279 121.89227 116.31064 122.17571
      19 113.50617 121.55909         10.43322   2.889265 116.31064 122.17571 110.69279 121.89227 110.70173 120.94237 116.31957 121.22600
      19 113.51515 120.60890         10.44125   2.891222 116.31957 121.22600 110.70173 120.94237 110.71077 119.99170 116.32860 120.27552
      19 113.52424 119.65795         10.44928   2.893182 116.32860 120.27552 110.71077 119.99170 110.71992 119.04026 116.33774 119.32428
      19 113.53344 118.70622         10.45732   2.895146 116.33774 119.32428 110.71992 119.04026 110.72917 118.08806 116.34698 118.37227
      19 113.54274 117.75373         10.46537   2.897112 116.34698 118.37227 110.72917 118.08806 110.73853 117.13509 116.35633 117.41949
      19 113.55215 116.80047         10.47342   2.899081 116.35633 117.41949 110.73853 117.13509 110.74800 116.18135 116.36579 116.46595
      19 113.56166 115.84645         10.48148   2.901052 116.36579 116.46595 110.74800 116.18135 110.75757 115.22685 116.37535 115.51163
      19 113.57129 114.89165         10.48955   2.903027 116.37535 115.51163 110.75757 115.22685 110.76725 114.27157 116.38502 114.55655
      19 113.58101 113.93608         10.49762   2.905005 116.38502 114.55655 110.76725 114.27157 110.77704 113.31552 116.39480 113.60069
      19 113.59085 112.97975         10.50570   2.906986 116.39480 113.60069 110.77704 113.31552 110.78693 112.35870 116.40469 112.64407
      19 113.60079 112.02264         10.51378   2.908969 116.40469 112.64407 110.78693 112.35870 110.79693 111.40111 116.41468 111.68667
      19 113.61084 111.06476         10.52188   2.910956 116.41468 111.68667 110.79693 111.40111 110.80704 110.44274 116.42478 110.72850
      19 113.62100 110.10610         10.52997   2.912945 116.42478 110.72850 110.80704 110.44274 110.81726 109.48360 116.43499 109.76956
      19 113.63127 109.14668         10.53808   2.914938 116.43499 109.76956 110.81726 109.48360 110.82759 108.52369 116.44530 108.80984
      19 113.64165 108.18648         10.54618   2.916933 116.44530 108.80984 110.82759 108.52369 110.83802 107.56301 116.45573 107.84935
      19 113.65213 107.22550         10.55430   2.918932 116.45573 107.84935 110.83802 107.56301 110.84856 106.60155 116.46626 106.88809
      19 113.66272 106.26375         10.56242   2.920933 116.46626 106.88809 110.84856 106.60155 110.85922 105.63931 116.47690 105.92605
      19 113.67343 105.30122         10.57055   2.922938 116.47690 105.92605 110.85922 105.63931 110.86998 104.67630 116.48766 104.96323
      19 113.68424 104.33792         10.57868   2.924945 116.48766 104.96323 110.86998 104.67630 110.88085 103.71251 116.49852 103.99964
      19 113.69516 103.37384         10.58683   2.926955 116.49852 103.99964 110.88085 103.71251 110.89183 102.74794 116.50949 103.03527
      19 113.70619 102.40898         10.59497   2.928969 116.50949 103.03527 110.89183 102.74794 110.90292 101.78259 116.52057 102.07012
      19 113.71733 101.44335         10.60313   2.930985 116.52057 102.07012 110.90292 101.78259 110.91412 100.81647 116.53176 101.10419
      19 113.72858 100.47693         10.61128   2.933004 116.53176 101.10419 110.91412 100.81647 110.92543  99.84956 116.54306 100.13748
      19 113.73994  99.50973         10.61945   2.935027 116.54306 100.13748 110.92543  99.84956 110.93686  98.88188 116.55447  99.16999
      19 113.75142  98.54176         10.62762   2.937052 116.55447  99.16999 110.93686  98.88188 110.94839  97.91341 116.56600  98.20173
      19 113.76300  97.57300         10.63580   2.939080 116.56600  98.20173 110.94839  97.91341 110.96004  96.94416 116.57763  97.23268
      19 113.77470  96.60346         10.64398   2.941112 116.57763  97.23268 110.96004  96.94416 110.97179  95.97413 116.58938  96.26285
      19 113.78650  95.63314         10.65218   2.943146 116.58938  96.26285 110.97179  95.97413 110.98366  95.00332 116.60123  95.29223
      19 113.79842  94.66203         10.66037   2.945183 116.60123  95.29223 110.98366  95.00332 110.99564  94.03172 116.61320  94.32084
      19 113.81045  93.69014         10.66858   2.947224 116.61320  94.32084 110.99564  94.03172 111.00773  93.05934 116.62529  93.34866
      19 113.82260  92.71747         10.67679   2.949267 116.62529  93.34866 111.00773  93.05934 111.01994  92.08617 116.63748  92.37569
      19 113.83485  91.74401         10.68500   2.951314 116.63748  92.37569 111.01994  92.08617 111.03225  91.11222 116.64979  91.40194
      19 113.84722  90.76977         10.69322   2.953364 116.64979  91.40194 111.03225  91.11222 111.04468  90.13748 116.66221  90.42740
      19 113.85970  89.79473         10.70145   2.955416 116.66221  90.42740 111.04468  90.13748 111.05723  89.16196 116.67474  89.45208
      19 113.87229  88.81892         10.70969   2.957472 116.67474  89.45208 111.05723  89.16196 111.06988  88.18565 116.68738  88.47597
      19 113.88500  87.84231         10.71793   2.959531 116.68738  88.47597 111.06988  88.18565 111.08265  87.20854 116.70014  87.49907
      19 113.89782  86.86492         10.72618   2.961593 116.70014  87.49907 111.08265  87.20854 111.09554  86.23065 116.71302  86.52138
      19 113.91076  85.88673         10.73443   2.963657 116.71302  86.52138 111.09554  86.23065 111.10853  85.25197 116.72601  85.54290
      19 113.92381  84.90776         10.74269   2.965725 116.72601  85.54290 111.10853  85.25197 111.12165  84.27250 116.73911  84.56364
      19 113.93697  83.92800         10.75096   2.967797 116.73911  84.56364 111.12165  84.27250 111.13487  83.29224 116.75232  83.58358
      19 113.95025  82.94744         10.75923   2.969871 116.75232  83.58358 111.13487  83.29224 111.14822  82.31119 116.76566  82.60273
      19 113.96365  81.96609         10.76751   2.971948 116.76566  82.60273 111.14822  82.31119 111.16167  81.32935 116.77910  81.62109
      19 113.97716  80.98396         10.77580   2.974028 116.77910  81.62109 111.16167  81.32935 111.17525  80.34671 116.79266  80.63866
      19 113.99078  80.00102         10.78409   2.976112 116.79266  80.63866 111.17525  80.34671 111.18893  79.36328 116.80634  79.65543
      19 114.00452  79.01730         10.79239   2.978198 116.80634  79.65543 111.18893  79.36328 111.20274  78.37905 116.82013  78.67141
      19 114.01838  78.03278         10.80069   2.980288 116.82013  78.67141 111.20274  78.37905 111.21666  77.39403 116.83404  77.68659
      19 114.03235  77.04746         10.80900   2.982381 116.83404  77.68659 111.21666  77.39403 111.23069  76.40822 116.84807  76.70098
      19 114.04644  76.06135         10.81732   2.984477 116.84807  76.70098 111.23069  76.40822 111.24485  75.42161 116.86221  75.71458
      19 114.06065  75.07444         10.82565   2.986576 116.86221  75.71458 111.24485  75.42161 111.25912  74.43420 116.87647  74.72737
      19 114.07497  74.08674         10.83398   2.988678 116.87647  74.72737 111.25912  74.43420 111.27350  73.44599 116.89085  73.73937
      19 114.08941  73.09823         10.84231   2.990783 116.89085  73.73937 111.27350  73.44599 111.28801  72.45698 116.90534  72.75057
      19 114.10397  72.10893         10.85066   2.992891 116.90534  72.75057 111.28801  72.45698 111.30263  71.46718 116.91995  71.76098
      19 114.11865  71.11883         10.85901   2.995003 116.91995  71.76098 111.30263  71.46718 111.31737  70.47658 116.93468  70.77058
      19 114.13344  70.12793         10.86736   2.997118 116.93468  70.77058 111.31737  70.47658 111.33223  69.48517 116.94953  69.77938
      19 114.14835  69.13623         10.87573   2.999236 116.94953  69.77938 111.33223  69.48517 111.34721  68.49297 116.96450  68.78739
      19 114.16338  68.14373         10.88410   3.001357 116.96450  68.78739 111.34721  68.49297 111.36230  67.49996 116.97958  67.79459
      19 114.17853  67.15043         10.89247   3.003481 116.97958  67.79459 111.36230  67.49996 111.37752  66.50615 116.99479  66.80099
      19 114.19380  66.15632         10.90085   3.005608 116.99479  66.80099 111.37752  66.50615 111.39285  65.51154 117.01011  65.80659
      19 114.20919  65.16141         10.90924   3.007739 117.01011  65.80659 111.39285  65.51154 111.40830  64.51613 117.02555  64.81138
      19 114.22470  64.16570         10.91764   3.009872 117.02555  64.81138 111.40830  64.51613 111.42388  63.51991 117.04111  63.81537
      19 114.24032  63.16918         10.92604   3.012009 117.04111  63.81537 111.42388  63.51991 111.43957  62.52288 117.05679  62.81855
      19 114.25607  62.17186         10.93445   3.014149 117.05679  62.81855 111.43957  62.52288 111.45538  61.52505 117.07260  61.82093
      19 114.27194  61.17373         10.94286   3.016293 117.07260  61.82093 111.45538  61.52505 111.47132  60.52641 117.08852  60.82251
      19 114.28793  60.17479         10.95128   3.018439 117.08852  60.82251 111.47132  60.52641 111.48737  59.52697 117.10456  59.82327
      19 114.30404  59.17505         10.95971   3.020589 117.10456  59.82327 111.48737  59.52697 111.50355  58.52672 117.12073  58.82323
      19 114.32027  58.17450         10.96814   3.022742 117.12073  58.82323 111.50355  58.52672 111.51984  57.52566 117.13701  57.82238
      19 114.33662  57.17314         10.97658   3.024898 117.13701  57.82238 111.51984  57.52566 111.53626  56.52379 117.15342  56.82072
      19 114.35309  56.17097         10.98503   3.027057 117.15342  56.82072 111.53626  56.52379 111.55280  55.52111 117.16995  55.81826
      19 114.36969  55.16800         10.99348   3.029220 117.16995  55.81826 111.55280  55.52111 111.56946  54.51762 117.18660  54.81498
      19 114.38641  54.16421         11.00194   3.031386 117.18660  54.81498 111.56946  54.51762 111.58625  53.51332 117.20337  53.81089
      19 114.40325  53.15961         11.01041   3.033555 117.20337  53.81089 111.58625  53.51332 111.60315  52.50821 117.22027  52.80599
      19 114.42021  52.15419         11.01888   3.035727 117.22027  52.80599 111.60315  52.50821 111.62018  51.50228 117.23728  51.80028
      19 114.43729  51.14797         11.02736   3.037902 117.23728  51.80028 111.62018  51.50228 111.63734  50.49554 117.25443  50.79375
      19 114.45450  50.14093         11.03585   3.040081 117.25443  50.79375 111.63734  50.49554 111.65461  49.48799 117.27169  49.78642
      19 114.47183  49.13308         11.04434   3.042263 117.27169  49.78642 111.65461  49.48799 111.67201  48.47962 117.28908  48.77826
      19 114.48929  48.12441         11.05284   3.044448 117.28908  48.77826 111.67201  48.47962 111.68954  47.47044 117.30659  47.76929
      19 114.50687  47.11493         11.06134   3.046637 117.30659  47.76929 111.68954  47.47044 111.70718  46.46044 117.32423  46.75951
      19 114.52457  46.10463         11.06986   3.048829 117.32423  46.75951 111.70718  46.46044 111.72496  45.44963 117.34199  45.74891
      19 114.54240  45.09351         11.07837   3.051024 117.34199  45.74891 111.72496  45.44963 111.74285  44.43799 117.35987  44.73749
      19 114.56036  44.08158         11.08690   3.053222 117.35987  44.73749 111.74285  44.43799 111.76087  43.42554 117.37788  43.72526
      19 114.57844  43.06883         11.09543   3.055424 117.37788  43.72526 111.76087  43.42554 111.77902  42.41228 117.39602  42.71221
      19 114.59664  42.05526         11.10397   3.057629 117.39602  42.71221 111.77902  42.41228 111.79729  41.39819 117.41428  41.69834
      19 114.61497  41.04087         11.11251   3.059837 117.41428  41.69834 111.79729  41.39819 111.81569  40.38328 117.43267  40.68364
      19 114.63342  40.02566         11.12107   3.062049 117.43267  40.68364 111.81569  40.38328 111.83422  39.36755 117.45118  39.66813
      19 114.65201  39.00962         11.12962   3.064263 117.45118  39.66813 111.83422  39.36755 111.85287  38.35100 117.46982  38.65180
      19 114.67071  37.99277         11.13819   3.066482 117.46982  38.65180 111.85287  38.35100 111.87164  37.33363 117.48858  37.63464
      19 114.68955  36.97510         11.14676   3.068703 117.48858  37.63464 111.87164  37.33363 111.89055  36.31543 117.50748  36.61666
      19 114.70851  35.95660         11.15534   3.070928 117.50748  36.61666 111.89055  36.31543 111.90958  35.29641 117.52650  35.59786
      19 114.72760  34.93727         11.16392   3.073156 117.52650  35.59786 111.90958  35.29641 111.92874  34.27657 117.54564  34.57824
      19 114.74682  33.91713         11.17251   3.075387 117.54564  34.57824 111.92874  34.27657 111.94802  33.25590 117.56492  33.55779
      19 114.76616  32.89616         11.18111   3.077622 117.56492  33.55779 111.94802  33.25590 111.96744  32.23440 117.58432  32.53651
      19 114.78563  31.87436         11.18971   3.079860 117.58432  32.53651 111.96744  32.23440 111.98698  31.21208 117.60385  31.51441
      19 114.80523  30.85173         11.19832   3.082102 117.60385  31.51441 111.98698  31.21208 112.00665  30.18894 117.62351  30.49148
      19 114.82496  29.82828         11.20694   3.084347 117.62351  30.49148 112.00665  30.18894 112.02645  29.16496 117.64330  29.46773
      19 114.84482  28.80400         11.21557   3.086595 117.64330  29.46773 112.02645  29.16496 112.04638  28.14016 117.66321  28.44315
      19 114.86481  27.77889         11.22420   3.088846 117.66321  28.44315 112.04638  28.14016 112.06644  27.11452 117.68326  27.41773
      19 114.88492  26.75296         11.23283   3.091101 117.68326  27.41773 112.06644  27.11452 112.08662  26.08806 117.70343  26.39149
      19 114.90517  25.72619         11.24148   3.093360 117.70343  26.39149 112.08662  26.08806 112.10694  25.06077 117.72374  25.36442
      19 114.92555  24.69859         11.25013   3.095621 117.72374  25.36442 112.10694  25.06077 112.12739  24.03264 117.74418  24.33652
      19 114.94605  23.67016         11.25879   3.097886 117.74418  24.33652 112.12739  24.03264 112.14797  23.00368 117.76474  23.30778
      19 114.96669  22.64090         11.26745   3.100155 117.76474  23.30778 112.14797  23.00368 112.16868  21.97390 117.78544  22.27822
      19 114.98746  21.61080         11.27612   3.102427 117.78544  22.27822 112.16868  21.97390 112.18951  20.94327 117.80626  21.24782
      19 115.00836  20.57988         11.28480   3.104702 117.80626  21.24782 112.18951  20.94327 112.21049  19.91182 117.82722  20.21658
      19 115.02939  19.54811         11.29348   3.106981 117.82722  20.21658 112.21049  19.91182 112.23159  18.87952 117.84831  19.18451
      18 105.59259 127.56701         10.95128   2.987280 108.39904 128.18607 102.78168 127.89303 102.78617 126.94784 108.40352 127.24109
      18 105.59712 126.62155         10.95971   2.989405 108.40352 127.24109 102.78617 126.94784 102.79074 126.00189 108.40808 126.29535
      18 105.60173 125.67532         10.96814   2.991534 108.40808 126.29535 102.79074 126.00189 102.79539 125.05518 108.41272 125.34884
      18 105.60641 124.72833         10.97658   2.993665 108.41272 125.34884 102.79539 125.05518 102.80012 124.10770 108.41744 124.40157
      18 105.61118 123.78057         10.98503   2.995800 108.41744 124.40157 102.80012 124.10770 102.80494 123.15945 108.42224 123.45354
      18 105.61602 122.83205         10.99348   2.997939 108.42224 123.45354 102.80494 123.15945 102.80983 122.21044 108.42712 122.50473
      18 105.62095 121.88275         11.00194   3.000080 108.42712 122.50473 102.80983 122.21044 102.81480 121.26066 108.43208 121.55516
      18 105.62595 120.93269         11.01041   3.002225 108.43208 121.55516 102.81480 121.26066 102.81985 120.31011 108.43712 120.60482
      18 105.63104 119.98187         11.01888   3.004374 108.43712 120.60482 102.81985 120.31011 102.82498 119.35879 108.44225 119.65372
      18 105.63621 119.03027         11.02736   3.006525 108.44225 119.65372 102.82498 119.35879 102.83020 118.40671 108.44745 118.70184
      18 105.64146 118.07790         11.03585   3.008680 108.44745 118.70184 102.83020 118.40671 102.83549 117.45385 108.45273 117.74919
      18 105.64679 117.12476         11.04434   3.010838 108.45273 117.74919 102.83549 117.45385 102.84087 116.50022 108.45810 116.79578
      18 105.65220 116.17086         11.05284   3.013000 108.45810 116.79578 102.84087 116.50022 102.84632 115.54582 108.46354 115.84159
      18 105.65769 115.21618         11.06134   3.015165 108.46354 115.84159 102.84632 115.54582 102.85186 114.59065 108.46907 114.88663
      18 105.66327 114.26072         11.06986   3.017333 108.46907 114.88663 102.85186 114.59065 102.85749 113.63470 108.47468 113.93090
      18 105.66892 113.30450         11.07837   3.019505 108.47468 113.93090 102.85749 113.63470 102.86319 112.67798 108.48037 112.97439
      18 105.67466 112.34750         11.08690   3.021680 108.48037 112.97439 102.86319 112.67798 102.86897 111.72049 108.48615 112.01711
      18 105.68048 111.38973         11.09543   3.023858 108.48615 112.01711 102.86897 111.72049 102.87484 110.76222 108.49200 111.05906
      18 105.68638 110.43118         11.10397   3.026040 108.49200 111.05906 102.87484 110.76222 102.88079 109.80318 108.49794 110.10023
      18 105.69237 109.47185         11.11251   3.028225 108.49794 110.10023 102.88079 109.80318 102.88682 108.84336 108.50396 109.14063
      18 105.69844 108.51175         11.12107   3.030414 108.50396 109.14063 102.88682 108.84336 102.89294 107.88277 108.51007 108.18024
      18 105.70459 107.55088         11.12962   3.032606 108.51007 108.18024 102.89294 107.88277 102.89914 106.92139 108.51626 107.21909
      18 105.71083 106.58922         11.13819   3.034801 108.51626 107.21909 102.89914 106.92139 102.90542 105.95924 108.52253 106.25715
      18 105.71714 105.62679         11.14676   3.037000 108.52253 106.25715 102.90542 105.95924 102.91179 104.99631 108.52888 105.29444
      18 105.72355 104.66358         11.15534   3.039202 108.52888 105.29444 102.91179 104.99631 102.91824 104.03260 108.53532 104.33094
      18 105.73003 103.69959         11.16392   3.041408 108.53532 104.33094 102.91824 104.03260 102.92477 103.06811 108.54184 103.36667
      18 105.73660 102.73481         11.17251   3.043617 108.54184 103.36667 102.92477 103.06811 102.93139 102.10284 108.54845 102.40162
      18 105.74325 101.76926         11.18111   3.045829 108.54845 102.40162 102.93139 102.10284 102.93809 101.13679 108.55514 101.43578
      18 105.74999 100.80293         11.18971   3.048045 108.55514 101.43578 102.93809 101.13679 102.94487 100.16996 108.56191 100.46917
      18 105.75681  99.83581         11.19832   3.050265 108.56191 100.46917 102.94487 100.16996 102.95174  99.20234 108.56877  99.50177
      18 105.76372  98.86791         11.20694   3.052487 108.56877  99.50177 102.95174  99.20234 102.95870  98.23394 108.57571  98.53359
      18 105.77071  97.89923         11.21557   3.054714 108.57571  98.53359 102.95870  98.23394 102.96574  97.26476 108.58274  97.56462
      18 105.77779  96.92977         11.22420   3.056943 108.58274  97.56462 102.96574  97.26476 102.97286  96.29479 108.58985  96.59487
      18 105.78495  95.95951         11.23283   3.059177 108.58985  96.59487 102.97286  96.29479 102.98008  95.32404 108.59705  95.62434
      18 105.79220  94.98848         11.24148   3.061413 108.59705  95.62434 102.98008  95.32404 102.98737  94.35250 108.60434  94.65302
      18 105.79953  94.01665         11.25013   3.063653 108.60434  94.65302 102.98737  94.35250 102.99475  93.38017 108.61171  93.68091
      18 105.80695  93.04404         11.25879   3.065897 108.61171  93.68091 102.99475  93.38017 103.00222  92.40706 108.61916  92.70802
      18 105.81446  92.07065         11.26745   3.068144 108.61916  92.70802 103.00222  92.40706 103.00978  91.43316 108.62671  91.73434
      18 105.82205  91.09646         11.27612   3.070395 108.62671  91.73434 103.00978  91.43316 103.01742  90.45847 108.63434  90.75987
      18 105.82973  90.12149         11.28480   3.072649 108.63434  90.75987 103.01742  90.45847 103.02514  89.48299 108.64205  89.78461
      18 105.83749  89.14572         11.29348   3.074906 108.64205  89.78461 103.02514  89.48299 103.03296  88.50672 108.64985  88.80856
      18 105.84534  88.16917         11.30217   3.077167 108.64985  88.80856 103.03296  88.50672 103.04086  87.52966 108.65774  87.83172
      18 105.85328  87.19183         11.31087   3.079432 108.65774  87.83172 103.04086  87.52966 103.04884  86.55181 108.66572  86.85409
      18 105.86130  86.21369         11.31957   3.081700 108.66572  86.85409 103.04884  86.55181 103.05692  85.57316 108.67378  85.87567
      18 105.86942  85.23476         11.32828   3.083972 108.67378  85.87567 103.05692  85.57316 103.06508  84.59373 108.68193  84.89646
      18 105.87762  84.25504         11.33700   3.086247 108.68193  84.89646 103.06508  84.59373 103.07333  83.61350 108.69017  83.91646
      18 105.88590  83.27453         11.34573   3.088525 108.69017  83.91646 103.07333  83.61350 103.08167  82.63248 108.69849  82.93566
      18 105.89428  82.29322         11.35446   3.090808 108.69849  82.93566 103.08167  82.63248 103.09009  81.65066 108.70690  81.95406
      18 105.90274  81.31111         11.36319   3.093093 108.70690  81.95406 103.09009  81.65066 103.09861  80.66804 108.71541  80.97167
      18 105.91129  80.32821         11.37194   3.095383 108.71541  80.97167 103.09861  80.66804 103.10721  79.68463 108.72400  79.98849
      18 105.91993  79.34452         11.38069   3.097676 108.72400  79.98849 103.10721  79.68463 103.11590  78.70043 108.73267  79.00451
      18 105.92866  78.36003         11.38945   3.099972 108.73267  79.00451 103.11590  78.70043 103.12468  77.71543 108.74144  78.01973
      18 105.93748  77.37474         11.39821   3.102272 108.74144  78.01973 103.12468  77.71543 103.13355  76.72962 108.75030  77.03415
      18 105.94639  76.38865         11.40698   3.104576 108.75030  77.03415 103.13355  76.72962 103.14251  75.74302 108.75924  76.04778
      18 105.95538  75.40176         11.41576   3.106883 108.75924  76.04778 103.14251  75.74302 103.15155  74.75562 108.76828  75.06061
      18 105.96447  74.41408         11.42455   3.109194 108.76828  75.06061 103.15155  74.75562 103.16069  73.76742 108.77740  74.07263
      18 105.97365  73.42559         11.43334   3.111508 108.77740  74.07263 103.16069  73.76742 103.16992  72.77842 108.78662  73.08386
      18 105.98291  72.43630         11.44214   3.113826 108.78662  73.08386 103.16992  72.77842 103.17923  71.78862 108.79592  72.09428
      18 105.99227  71.44621         11.45094   3.116147 108.79592  72.09428 103.17923  71.78862 103.18864  70.79802 108.80531  71.10391
      18 106.00171  70.45532         11.45975   3.118473 108.80531  71.10391 103.18864  70.79802 103.19814  69.80661 108.81480  70.11273
      18 106.01125  69.46363         11.46857   3.120801 108.81480  70.11273 103.19814  69.80661 103.20772  68.81440 108.82437  69.12075
      18 106.02087  68.47113         11.47740   3.123134 108.82437  69.12075 103.20772  68.81440 103.21740  67.82139 108.83404  68.12796
      18 106.03059  67.47783         11.48623   3.125470 108.83404  68.12796 103.21740  67.82139 103.22717  66.82757 108.84380  67.13437
      18 106.04040  66.48372         11.49507   3.127810 108.84380  67.13437 103.22717  66.82757 103.23703  65.83294 108.85364  66.13998
      18 106.05030  65.48881         11.50391   3.130153 108.85364  66.13998 103.23703  65.83294 103.24698  64.83751 108.86358  65.14478
      18 106.06029  64.49309         11.51277   3.132500 108.86358  65.14478 103.24698  64.83751 103.25703  63.84127 108.87361  64.14877
      18 106.07037  63.49656         11.52162   3.134850 108.87361  64.14877 103.25703  63.84127 103.26716  62.84423 108.88374  63.15195
      18 106.08055  62.49923         11.53049   3.137205 108.88374  63.15195 103.26716  62.84423 103.27739  61.84638 108.89395  62.15433
      18 106.09081  61.50108         11.53936   3.139563 108.89395  62.15433 103.27739  61.84638 103.28771  60.84771 108.90426  61.15590
      18 106.10117  60.50213         11.54824   3.141924 108.90426  61.15590 103.28771  60.84771 103.29812  59.84824 108.91466  60.15666
      18 106.11162  59.50237         11.55713   3.144289 108.91466  60.15666 103.29812  59.84824 103.30862  58.84796 108.92515  59.15661
      18 106.12217  58.50180         11.56602   3.146658 108.92515  59.15661 103.30862  58.84796 103.31922  57.84686 108.93573  58.15575
      18 106.13281  57.50042         11.57492   3.149031 108.93573  58.15575 103.31922  57.84686 103.32991  56.84496 108.94641  57.15408
      18 106.14354  56.49822         11.58383   3.151407 108.94641  57.15408 103.32991  56.84496 103.34069  55.84224 108.95718  56.15159
      18 106.15436  55.49521         11.59275   3.153787 108.95718  56.15159 103.34069  55.84224 103.35157  54.83871 108.96804  55.14829
      18 106.16528  54.49139         11.60167   3.156171 108.96804  55.14829 103.35157  54.83871 103.36254  53.83437 108.97900  54.14418
      18 106.17629  53.48676         11.61059   3.158558 108.97900  54.14418 103.36254  53.83437 103.37360  52.82921 108.99005  53.13926
      18 106.18739  52.48131         11.61953   3.160950 108.99005  53.13926 103.37360  52.82921 103.38476  51.82323 109.00119  52.13352
      18 106.19859  51.47505         11.62847   3.163344 109.00119  52.13352 103.38476  51.82323 103.39601  50.81644 109.01243  51.12696
      18 106.20988  50.46797         11.63742   3.165743 109.01243  51.12696 103.39601  50.81644 103.40736  49.80884 109.02376  50.11959
      18 106.22127  49.46007         11.64637   3.168145 109.02376  50.11959 103.40736  49.80884 103.41880  48.80041 109.03519  49.11141
      18 106.23275  48.45135         11.65534   3.170551 109.03519  49.11141 103.41880  48.80041 103.43033  47.79117 109.04671  48.10240
      18 106.24432  47.44182         11.66431   3.172961 109.04671  48.10240 103.43033  47.79117 103.44196  46.78111 109.05833  47.09258
      18 106.25600  46.43147         11.67328   3.175375 109.05833  47.09258 103.44196  46.78111 103.45369  45.77023 109.07004  46.08193
      18 106.26776  45.42030         11.68226   3.177792 109.07004  46.08193 103.45369  45.77023 103.46551  44.75854 109.08185  45.07047
      18 106.27962  44.40831         11.69125   3.180213 109.08185  45.07047 103.46551  44.75854 103.47743  43.74602 109.09376  44.05819
      18 106.29158  43.39550         11.70025   3.182638 109.09376  44.05819 103.47743  43.74602 103.48944  42.73267 109.10576  43.04509
      18 106.30364  42.38186         11.70925   3.185067 109.10576  43.04509 103.48944  42.73267 103.50155  41.71851 109.11785  42.03116
      18 106.31579  41.36741         11.71827   3.187499 109.11785  42.03116 103.50155  41.71851 103.51375  40.70352 109.13004  41.01641
      18 106.32803  40.35213         11.72728   3.189935 109.13004  41.01641 103.51375  40.70352 103.52605  39.68772 109.14233  40.00084
      18 106.34038  39.33603         11.73631   3.192375 109.14233  40.00084 103.52605  39.68772 103.53845  38.67108 109.15471  38.98445
      18 106.35281  38.31910         11.74534   3.194819 109.15471  38.98445 103.53845  38.67108 103.55094  37.65362 109.16720  37.96723
      18 106.36535  37.30135         11.75438   3.197267 109.16720  37.96723 103.55094  37.65362 103.56354  36.63534 109.17977  36.94919
      18 106.37798  36.28277         11.76342   3.199718 109.17977  36.94919 103.56354  36.63534 103.57623  35.61623 109.19245  35.93032
      18 106.39072  35.26337         11.77247   3.202173 109.19245  35.93032 103.57623  35.61623 103.58901  34.59629 109.20522  34.91062
      18 106.40354  34.24314         11.78153   3.204632 109.20522  34.91062 103.58901  34.59629 103.60190  33.57553 109.21809  33.89010
      18 106.41647  33.22208         11.79060   3.207095 109.21809  33.89010 103.60190  33.57553 103.61488  32.55393 109.23106  32.86874
      18 106.42950  32.20019         11.79967   3.209562 109.23106  32.86874 103.61488  32.55393 103.62796  31.53151 109.24413  31.84656
      18 106.44262  31.17748         11.80875   3.212033 109.24413  31.84656 103.62796  31.53151 103.64114  30.50826 109.25729  30.82355
      18 106.45584  30.15393         11.81784   3.214507 109.25729  30.82355 103.64114  30.50826 103.65441  29.48417 109.27056  29.79971
      18 106.46916  29.12955         11.82693   3.216985 109.27056  29.79971 103.65441  29.48417 103.66779  28.45926 109.28392  28.77504
      18 106.48258  28.10435         11.83604   3.219467 109.28392  28.77504 103.66779  28.45926 103.68126  27.43351 109.29738  27.74954
      18 106.49609  27.07830         11.84514   3.221953 109.29738  27.74954 103.68126  27.43351 103.69484  26.40694 109.31094  26.72321
      18 106.50971  26.05143         11.85426   3.224443 109.31094  26.72321 103.69484  26.40694 103.70851  25.37952 109.32460  25.69604
      18 106.52343  25.02373         11.86338   3.226937 109.32460  25.69604 103.70851  25.37952 103.72228  24.35128 109.33836  24.66804
      18 106.53724  23.99518         11.87251   3.229435 109.33836  24.66804 103.72228  24.35128 103.73616  23.32220 109.35222  23.63920
      18 106.55116  22.96581         11.88165   3.231936 109.35222  23.63920 103.73616  23.32220 103.75013  22.29228 109.36618  22.60953
      18 106.56517  21.93560         11.89079   3.234442 109.36618  22.60953 103.75013  22.29228 103.76420  21.26153 109.38024  21.57903
      18 106.57929  20.90455         11.89994   3.236951 109.38024  21.57903 103.76420  21.26153 103.77838  20.22994 109.39439  20.54768
      18 106.59351  19.87267         11.90910   3.239464 109.39439  20.54768 103.77838  20.22994 103.79265  19.19751 109.40866  19.51550
      18 106.60783  18.83994         11.91826   3.241982 109.40866  19.51550 103.79265  19.19751 103.80703  18.16425 109.42302  18.48248
      18 106.62224  17.80638         11.92743   3.244503 109.42302  18.48248 103.80703  18.16425 103.82150  17.13015 109.43748  17.44863
      18 106.63676  16.77198         11.93661   3.247028 109.43748  17.44863 103.82150  17.13015 103.83608  16.09520 109.45204  16.41393
      18 106.65139  15.73674         11.94580   3.249557 109.45204  16.41393 103.83608  16.09520 103.85076  15.05942 109.46671  15.37840
      18 106.66611  14.70066         11.95499   3.252090 109.46671  15.37840 103.85076  15.05942 103.86554  14.02279 109.48147  14.34202
      18 106.68093  13.66374         11.96419   3.254626 109.48147  14.34202 103.86554  14.02279 103.88042  12.98533 109.49634  13.30480
      18 106.69586  12.62598         11.97340   3.257167 109.49634  13.30480 103.88042  12.98533 103.89541  11.94702 109.51131  12.26674
      17  96.83947 127.78595         11.58383   3.109848  99.64810 128.41102  94.03138 128.10598  94.03086 127.16077  99.64757 127.46604
      17  96.83898 126.84048         11.59275   3.112180  99.64757 127.46604  94.03086 127.16077  94.03042 126.21479  99.64711 126.52029
      17  96.83857 125.89423         11.60167   3.114515  99.64711 126.52029  94.03042 126.21479  94.03005 125.26805  99.64673 125.57378
      17  96.83823 124.94722         11.61059   3.116854  99.64673 125.57378  94.03005 125.26805  94.02975 124.32054  99.64642 124.62650
      17  96.83796 123.99944         11.61953   3.119197  99.64642 124.62650  94.02975 124.32054  94.02952 123.37226  99.64618 123.67845
      17  96.83776 123.05089         11.62847   3.121544  99.64618 123.67845  94.02952 123.37226  94.02937 122.42321  99.64602 122.72963
      17  96.83764 122.10157         11.63742   3.123895  99.64602 122.72963  94.02937 122.42321  94.02929 121.47339  99.64593 121.78004
      17  96.83760 121.15149         11.64637   3.126249  99.64593 121.78004  94.02929 121.47339  94.02929 120.52280  99.64591 120.82969
      17  96.83762 120.20063         11.65534   3.128607  99.64591 120.82969  94.02929 120.52280  94.02936 119.57145  99.64597 119.87856
      17  96.83772 119.24900         11.66431   3.130969  99.64597 119.87856  94.02936 119.57145  94.02950 118.61932  99.64610 118.92666
      17  96.83789 118.29660         11.67328   3.133335  99.64610 118.92666  94.02950 118.61932  94.02972 117.66641  99.64630 117.97399
      17  96.83814 117.34343         11.68226   3.135704  99.64630 117.97399  94.02972 117.66641  94.03001 116.71274  99.64658 117.02055
      17  96.83847 116.38948         11.69125   3.138077  99.64658 117.02055  94.03001 116.71274  94.03037 115.75829  99.64693 116.06633
      17  96.83886 115.43476         11.70025   3.140455  99.64693 116.06633  94.03037 115.75829  94.03082 114.80307  99.64736 115.11134
      17  96.83933 114.47927         11.70925   3.142836  99.64736 115.11134  94.03082 114.80307  94.03133 113.84707  99.64786 114.15558
      17  96.83988 113.52300         11.71827   3.145221  99.64786 114.15558  94.03133 113.84707  94.03192 112.89030  99.64844 113.19904
      17  96.84050 112.56596         11.72728   3.147609  99.64844 113.19904  94.03192 112.89030  94.03259 111.93275  99.64909 112.24173
      17  96.84120 111.60814         11.73631   3.150002  99.64909 112.24173  94.03259 111.93275  94.03333 110.97442  99.64982 111.28364
      17  96.84197 110.64954         11.74534   3.152398  99.64982 111.28364  94.03333 110.97442  94.03414 110.01532  99.65062 110.32477
      17  96.84282 109.69017         11.75438   3.154799  99.65062 110.32477  94.03414 110.01532  94.03503 109.05544  99.65150 109.36512
      17  96.84374 108.73001         11.76342   3.157203  99.65150 109.36512  94.03503 109.05544  94.03600 108.09478  99.65246 108.40470
      17  96.84474 107.76908         11.77247   3.159611  99.65246 108.40470  94.03600 108.09478  94.03705 107.13334  99.65349 107.44349
      17  96.84581 106.80737         11.78153   3.162023  99.65349 107.44349  94.03705 107.13334  94.03817 106.17112  99.65460 106.48151
      17  96.84697 105.84488         11.79060   3.164438  99.65460 106.48151  94.03817 106.17112  94.03936 105.20812  99.65578 105.51875
      17  96.84819 104.88161         11.79967   3.166858  99.65578 105.51875  94.03936 105.20812  94.04063 104.24434  99.65704 104.55520
      17  96.84950 103.91755         11.80875   3.169282  99.65704 104.55520  94.04063 104.24434  94.04198 103.27977  99.65837 103.59088
      17  96.85088 102.95272         11.81784   3.171709  99.65837 103.59088  94.04198 103.27977  94.04341 102.31443  99.65979 102.62577
      17  96.85234 101.98710         11.82693   3.174141  99.65979 102.62577  94.04341 102.31443  94.04491 101.34830  99.66128 101.65988
      17  96.85387 101.02070         11.83604   3.176576  99.66128 101.65988  94.04491 101.34830  94.04649 100.38139  99.66284 100.69320
      17  96.85549 100.05351         11.84514   3.179015  99.66284 100.69320  94.04649 100.38139  94.04815  99.41369  99.66449  99.72575
      17  96.85718  99.08554         11.85426   3.181459  99.66449  99.72575  94.04815  99.41369  94.04989  98.44520  99.66621  98.75750
      17  96.85894  98.11678         11.86338   3.183906  99.66621  98.75750  94.04989  98.44520  94.05170  97.47593  99.66801  97.78847
      17  96.86079  97.14724         11.87251   3.186357  99.66801  97.78847  94.05170  97.47593  94.05359  96.50588  99.66989  96.81866
      17  96.86271  96.17691         11.88165   3.188812  99.66989  96.81866  94.05359  96.50588  94.05556  95.53503  99.67184  95.84805
      17  96.86471  95.20579         11.89079   3.191271  99.67184  95.84805  94.05556  95.53503  94.05761  94.56340  99.67388  94.87666
      17  96.86679  94.23389         11.89994   3.193734  99.67388  94.87666  94.05761  94.56340  94.05973  93.59098  99.67599  93.90448
      17  96.86895  93.26119         11.90910   3.196201  99.67599  93.90448  94.05973  93.59098  94.06194  92.61777  99.67818  92.93151
      17  96.87119  92.28771         11.91826   3.198672  99.67818  92.93151  94.06194  92.61777  94.06422  91.64377  99.68045  91.95776
      17  96.87351  91.31343         11.92743   3.201147  99.68045  91.95776  94.06422  91.64377  94.06659  90.66898  99.68280  90.98321
      17  96.87590  90.33837         11.93661   3.203626  99.68280  90.98321  94.06659  90.66898  94.06903  89.69340  99.68523  90.00787
      17  96.87838  89.36251         11.94580   3.206109  99.68523  90.00787  94.06903  89.69340  94.07155  88.71702  99.68774  89.03174
      17  96.88093  88.38586         11.95499   3.208596  99.68774  89.03174  94.07155  88.71702  94.07415  87.73985  99.69032  88.05482
      17  96.88356  87.40842         11.96419   3.211087  99.69032  88.05482  94.07415  87.73985  94.07683  86.76189  99.69299  87.07710
      17  96.88628  86.43019         11.97340   3.213582  99.69299  87.07710  94.07683  86.76189  94.07959  85.78314  99.69574  86.09859
      17  96.88907  85.45116         11.98261   3.216081  99.69574  86.09859  94.07959  85.78314  94.08243  84.80359  99.69856  85.11929
      17  96.89194  84.47133         11.99183   3.218584  99.69856  85.11929  94.08243  84.80359  94.08535  83.82325  99.70147  84.13919
      17  96.89490  83.49071         12.00106   3.221091  99.70147  84.13919  94.08535  83.82325  94.08835  82.84210  99.70446  83.15829
      17  96.89793  82.50930         12.01029   3.223603  99.70446  83.15829  94.08835  82.84210  94.09143  81.86017  99.70753  82.17660
      17  96.90105  81.52708         12.01954   3.226118  99.70753  82.17660  94.09143  81.86017  94.09460  80.87743  99.71067  81.19411
      17  96.90424  80.54407         12.02879   3.228637  99.71067  81.19411  94.09460  80.87743  94.09784  79.89390  99.71390  80.21082
      17  96.90752  79.56026         12.03804   3.231160  99.71390  80.21082  94.09784  79.89390  94.10116  78.90957  99.71722  79.22674
      17  96.91088  78.57565         12.04731   3.233688  99.71722  79.22674  94.10116  78.90957  94.10457  77.92443  99.72061  78.24186
      17  96.91432  77.59025         12.05658   3.236219  99.72061  78.24186  94.10457  77.92443  94.10806  76.93850  99.72408  77.25617
      17  96.91784  76.60404         12.06585   3.238755  99.72408  77.25617  94.10806  76.93850  94.11163  75.95177  99.72764  76.26969
      17  96.92144  75.61703         12.07514   3.241295  99.72764  76.26969  94.11163  75.95177  94.11528  74.96423  99.73127  75.28240
      17  96.92513  74.62922         12.08443   3.243838  99.73127  75.28240  94.11528  74.96423  94.11901  73.97590  99.73499  74.29432
      17  96.92890  73.64060         12.09373   3.246386  99.73499  74.29432  94.11901  73.97590  94.12283  72.98676  99.73879  73.30543
      17  96.93275  72.65119         12.10304   3.248938  99.73879  73.30543  94.12283  72.98676  94.12673  71.99681  99.74268  72.31573
      17  96.93668  71.66097         12.11235   3.251495  99.74268  72.31573  94.12673  71.99681  94.13071  71.00607  99.74664  71.32524
      17  96.94069  70.66994         12.12167   3.254055  99.74664  71.32524  94.13071  71.00607  94.13477  70.01451  99.75069  70.33393
      17  96.94479  69.67811         12.13100   3.256619  99.75069  70.33393  94.13477  70.01451  94.13892  69.02216  99.75483  69.34183
      17  96.94897  68.68548         12.14034   3.259188  99.75483  69.34183  94.13892  69.02216  94.14315  68.02899  99.75904  68.34891
      17  96.95324  67.69204         12.14968   3.261760  99.75904  68.34891  94.14315  68.02899  94.14746  67.03502  99.76334  67.35520
      17  96.95759  66.69779         12.15903   3.264337  99.76334  67.35520  94.14746  67.03502  94.15186  66.04024  99.76772  66.36067
      17  96.96202  65.70273         12.16838   3.266918  99.76772  66.36067  94.15186  66.04024  94.15634  65.04465  99.77219  65.36533
      17  96.96653  64.70686         12.17775   3.269503  99.77219  65.36533  94.15634  65.04465  94.16090  64.04826  99.77674  64.36919
      17  96.97113  63.71019         12.18712   3.272093  99.77674  64.36919  94.16090  64.04826  94.16555  63.05105  99.78137  63.37224
      17  96.97582  62.71270         12.19650   3.274686  99.78137  63.37224  94.16555  63.05105  94.17029  62.05303  99.78609  62.37448
      17  96.98058  61.71441         12.20588   3.277284  99.78609  62.37448  94.17029  62.05303  94.17510  61.05420  99.79090  61.37590
      17  96.98544  60.71530         12.21528   3.279886  99.79090  61.37590  94.17510  61.05420  94.18001  60.05456  99.79578  60.37652
      17  96.99038  59.71538         12.22468   3.282492  99.79578  60.37652  94.18001  60.05456  94.18499  59.05411  99.80076  59.37632
      17  96.99540  58.71465         12.23408   3.285103  99.80076  59.37632  94.18499  59.05411  94.19007  58.05285  99.80582  58.37531
      17  97.00051  57.71311         12.24350   3.287717  99.80582  58.37531  94.19007  58.05285  94.19522  57.05077  99.81096  57.37349
      17  97.00570  56.71075         12.25292   3.290336  99.81096  57.37349  94.19522  57.05077  94.20047  56.04787  99.81619  56.37085
      17  97.01098  55.70758         12.26235   3.292959  99.81619  56.37085  94.20047  56.04787  94.20580  55.04416  99.82150  55.36740
      17  97.01634  54.70359         12.27178   3.295586  99.82150  55.36740  94.20580  55.04416  94.21121  54.03964  99.82690  54.36313
      17  97.02179  53.69878         12.28123   3.298218  99.82690  54.36313  94.21121  54.03964  94.21671  53.03429  99.83239  53.35805
      17  97.02733  52.69316         12.29068   3.300853  99.83239  53.35805  94.21671  53.03429  94.22230  52.02813  99.83796  52.35214
      17  97.03295  51.68672         12.30014   3.303493  99.83796  52.35214  94.22230  52.02813  94.22797  51.02116  99.84362  51.34543
      17  97.03866  50.67946         12.30960   3.306138  99.84362  51.34543  94.22797  51.02116  94.23373  50.01336  99.84936  50.33789
      17  97.04446  49.67139         12.31907   3.308786  99.84936  50.33789  94.23373  50.01336  94.23958  49.00474  99.85520  49.32953
      17  97.05034  48.66249         12.32855   3.311439  99.85520  49.32953  94.23958  49.00474  94.24551  47.99531  99.86111  48.32036
      17  97.05631  47.65277         12.33804   3.314096  99.86111  48.32036  94.24551  47.99531  94.25154  46.98505  99.86712  47.31036
      17  97.06237  46.64224         12.34754   3.316758  99.86712  47.31036  94.25154  46.98505  94.25764  45.97397  99.87322  46.29954
      17  97.06851  45.63088         12.35704   3.319423  99.87322  46.29954  94.25764  45.97397  94.26384  44.96207  99.87940  45.28790
      17  97.07475  44.61869         12.36655   3.322093  99.87940  45.28790  94.26384  44.96207  94.27013  43.94934  99.88567  44.27544
      17  97.08107  43.60569         12.37606   3.324768  99.88567  44.27544  94.27013  43.94934  94.27650  42.93580  99.89202  43.26215
      17  97.08748  42.59186         12.38559   3.327446  99.89202  43.26215  94.27650  42.93580  94.28296  41.92142  99.89847  42.24804
      17  97.09397  41.57721         12.39512   3.330129  99.89847  42.24804  94.28296  41.92142  94.28951  40.90623  99.90500  41.23311
      17  97.10056  40.56173         12.40466   3.332817  99.90500  41.23311  94.28951  40.90623  94.29614  39.89020  99.91162  40.21735
      17  97.10723  39.54542         12.41420   3.335508  99.91162  40.21735  94.29614  39.89020  94.30287  38.87335  99.91833  39.20076
      17  97.11400  38.52829         12.42375   3.338204  99.91833  39.20076  94.30287  38.87335  94.30969  37.85568  99.92513  38.18335
      17  97.12085  37.51033         12.43331   3.340905  99.92513  38.18335  94.30969  37.85568  94.31659  36.83717  99.93202  37.16511
      17  97.12779  36.49155         12.44288   3.343609  99.93202  37.16511  94.31659  36.83717  94.32358  35.81784  99.93900  36.14604
      17  97.13482  35.47193         12.45246   3.346319  99.93900  36.14604  94.32358  35.81784  94.33067  34.79768  99.94607  35.12615
      17  97.14194  34.45149         12.46204   3.349032  99.94607  35.12615  94.33067  34.79768  94.33784  33.77668  99.95323  34.10542
      17  97.14915  33.43021         12.47163   3.351750  99.95323  34.10542  94.33784  33.77668  94.34510  32.75486  99.96047  33.08386
      17  97.15645  32.40811         12.48123   3.354472  99.96047  33.08386  94.34510  32.75486  94.35246  31.73220  99.96781  32.06147
      17  97.16384  31.38517         12.49083   3.357199  99.96781  32.06147  94.35246  31.73220  94.35990  30.70872  99.97524  31.03826
      17  97.17132  30.36140         12.50044   3.359930  99.97524  31.03826  94.35990  30.70872  94.36744  29.68440  99.98276  30.01420
      17  97.17890  29.33680         12.51006   3.362665  99.98276  30.01420  94.36744  29.68440  94.37506  28.65924  99.99037  28.98932
      17  97.18656  28.31136         12.51969   3.365405  99.99037  28.98932  94.37506  28.65924  94.38278  27.63326  99.99807  27.96360
      17  97.19431  27.28509         12.52932   3.368150  99.99807  27.96360  94.38278  27.63326  94.39058  26.60643 100.00586  26.93704
      17  97.20216  26.25798         12.53897   3.370898 100.00586  26.93704  94.39058  26.60643  94.39848  25.57877 100.01374  25.90966
      17  97.21009  25.23004         12.54862   3.373652 100.01374  25.90966  94.39848  25.57877  94.40647  24.55028 100.02172  24.88143
      17  97.21812  24.20126         12.55827   3.376409 100.02172  24.88143  94.40647  24.55028  94.41455  23.52095 100.02978  23.85237
      17  97.22624  23.17165         12.56794   3.379172 100.02978  23.85237  94.41455  23.52095  94.42273  22.49078 100.03794  22.82247
      17  97.23445  22.14119         12.57761   3.381938 100.03794  22.82247  94.42273  22.49078  94.43099  21.45977 100.04619  21.79173
      17  97.24276  21.10990         12.58729   3.384709 100.04619  21.79173  94.43099  21.45977  94.43935  20.42792 100.05453  20.76016
      17  97.25115  20.07777         12.59697   3.387485 100.05453  20.76016  94.43935  20.42792  94.44780  19.39523 100.06297  19.72774
      17  97.25964  19.04480         12.60667   3.390265 100.06297  19.72774  94.44780  19.39523  94.45635  18.36170 100.07150  18.69448
      17  97.26823  18.01098         12.61637   3.393049 100.07150  18.69448  94.45635  18.36170  94.46499  17.32733 100.08012  17.66039
      17  97.27690  16.97633         12.62608   3.395838 100.08012  17.66039  94.46499  17.32733  94.47372  16.29212 100.08883  16.62545
      17  97.28567  15.94083         12.63579   3.398632 100.08883  16.62545  94.47372  16.29212  94.48254  15.25607 100.09764  15.58967
      17  97.29453  14.90449         12.64552   3.401430 100.09764  15.58967  94.48254  15.25607  94.49146  14.21917 100.10654  14.55304
      17  97.30349  13.86731         12.65525   3.404233 100.10654  14.55304  94.49146  14.21917  94.50047  13.18142 100.11553  13.51557
      17  97.31254  12.82928         12.66498   3.407040 100.11553  13.51557  94.50047  13.18142  94.50957  12.14284 100.12462  12.47726
      17  97.32168  11.79041         12.67473   3.409852 100.12462  12.47726  94.50957  12.14284  94.51877  11.10340 100.13381  11.43810
      17  97.33092  10.75069         12.68448   3.412668 100.13381  11.43810  94.51877  11.10340  94.52807  10.06312 100.14308  10.39810
      17  97.34025   9.71012         12.69425   3.415489 100.14308  10.39810  94.52807  10.06312  94.53745   9.02199 100.15245   9.35725
      17  97.34968   8.66871         12.70401   3.418314 100.15245   9.35725  94.53745   9.02199  94.54694   7.98002 100.16192   8.31555
      17  97.35920   7.62645         12.71379   3.421144 100.16192   8.31555  94.54694   7.98002  94.55652   6.93719 100.17148   7.27300
      17  97.36882   6.58334         12.72357   3.423978 100.17148   7.27300  94.55652   6.93719  94.56619   5.89352 100.18114   6.22961
      16  86.95794 127.38926         12.30014   3.249051  89.76791 128.02142  84.15194 127.70275  84.14800 126.75697  89.76395 127.07590
      16  86.95401 126.44323         12.30960   3.251617  89.76395 127.07590  84.14800 126.75697  84.14409 125.81042  89.76003 126.12960
      16  86.95012 125.49642         12.31907   3.254187  89.76003 126.12960  84.14409 125.81042  84.14023 124.86311  89.75615 125.18254
      16  86.94626 124.54885         12.32855   3.256762  89.75615 125.18254  84.14023 124.86311  84.13640 123.91502  89.75231 124.23470
      16  86.94245 123.60050         12.33804   3.259341  89.75231 124.23470  84.13640 123.91502  84.13261 122.96616  89.74850 123.28610
      16  86.93867 122.65138         12.34754   3.261924  89.74850 123.28610  84.13261 122.96616  84.12886 122.01653  89.74474 122.33672
      16  86.93493 121.70149         12.35704   3.264512  89.74474 122.33672  84.12886 122.01653  84.12514 121.06613  89.74101 121.38657
      16  86.93123 120.75083         12.36655   3.267104  89.74101 121.38657  84.12514 121.06613  84.12147 120.11495  89.73732 120.43565
      16  86.92756 119.79940         12.37606   3.269700  89.73732 120.43565  84.12147 120.11495  84.11783 119.16300  89.73367 119.48396
      16  86.92394 118.84719         12.38559   3.272300  89.73367 119.48396  84.11783 119.16300  84.11423 118.21028  89.73005 118.53149
      16  86.92035 117.89420         12.39512   3.274905  89.73005 118.53149  84.11423 118.21028  84.11067 117.25678  89.72648 117.57825
      16  86.91680 116.94045         12.40466   3.277515  89.72648 117.57825  84.11067 117.25678  84.10715 116.30251  89.72294 116.62423
      16  86.91330 115.98591         12.41420   3.280128  89.72294 116.62423  84.10715 116.30251  84.10367 115.34746  89.71944 115.66943
      16  86.90983 115.03060         12.42375   3.282746  89.71944 115.66943  84.10367 115.34746  84.10022 114.39163  89.71599 114.71386
      16  86.90639 114.07451         12.43331   3.285369  89.71599 114.71386  84.10022 114.39163  84.09682 113.43502  89.71257 113.75752
      16  86.90300 113.11765         12.44288   3.287996  89.71257 113.75752  84.09682 113.43502  84.09345 112.47764  89.70919 112.80039
      16  86.89965 112.16000         12.45246   3.290627  89.70919 112.80039  84.09345 112.47764  84.09013 111.51948  89.70585 111.84248
      16  86.89634 111.20158         12.46204   3.293262  89.70585 111.84248  84.09013 111.51948  84.08684 110.56053  89.70254 110.88380
      16  86.89306 110.24238         12.47163   3.295902  89.70254 110.88380  84.08684 110.56053  84.08359 109.60081  89.69928 109.92434
      16  86.88983 109.28239         12.48123   3.298547  89.69928 109.92434  84.08359 109.60081  84.08039 108.64031  89.69606 108.96409
      16  86.88663 108.32163         12.49083   3.301196  89.69606 108.96409  84.08039 108.64031  84.07722 107.67902  89.69288 108.00307
      16  86.88347 107.36008         12.50044   3.303849  89.69288 108.00307  84.07722 107.67902  84.07409 106.71695  89.68973 107.04126
      16  86.88036 106.39775         12.51006   3.306507  89.68973 107.04126  84.07409 106.71695  84.07100 105.75410  89.68663 106.07867
      16  86.87728 105.43464         12.51969   3.309169  89.68663 106.07867  84.07100 105.75410  84.06795 104.79047  89.68357 105.11530
      16  86.87424 104.47074         12.52932   3.311835  89.68357 105.11530  84.06795 104.79047  84.06494 103.82605  89.68054 104.15114
      16  86.87125 103.50606         12.53897   3.314506  89.68054 104.15114  84.06494 103.82605  84.06197 102.86085  89.67756 103.18620
      16  86.86829 102.54060         12.54862   3.317182  89.67756 103.18620  84.06197 102.86085  84.05905 101.89486  89.67461 102.22047
      16  86.86538 101.57435         12.55827   3.319862  89.67461 102.22047  84.05905 101.89486  84.05616 100.92808  89.67171 101.25396
      16  86.86250 100.60731         12.56794   3.322546  89.67171 101.25396  84.05616 100.92808  84.05331  99.96052  89.66885 100.28666
      16  86.85966  99.63948         12.57761   3.325235  89.66885 100.28666  84.05331  99.96052  84.05050  98.99217  89.66602  99.31857
      16  86.85687  98.67087         12.58729   3.327929  89.66602  99.31857  84.05050  98.99217  84.04773  98.02303  89.66324  98.34969
      16  86.85411  97.70147         12.59697   3.330627  89.66324  98.34969  84.04773  98.02303  84.04501  97.05310  89.66050  97.38003
      16  86.85140  96.73128         12.60667   3.333329  89.66050  97.38003  84.04501  97.05310  84.04232  96.08238  89.65780  96.40958
      16  86.84873  95.76030         12.61637   3.336036  89.65780  96.40958  84.04232  96.08238  84.03968  95.11087  89.65514  95.43833
      16  86.84610  94.78852         12.62608   3.338748  89.65514  95.43833  84.03968  95.11087  84.03707  94.13857  89.65252  94.46630
      16  86.84350  93.81596         12.63579   3.341464  89.65252  94.46630  84.03707  94.13857  84.03451  93.16548  89.64994  93.49348
      16  86.84095  92.84261         12.64552   3.344184  89.64994  93.49348  84.03451  93.16548  84.03199  92.19160  89.64740  92.51986
      16  86.83845  91.86846         12.65525   3.346909  89.64740  92.51986  84.03199  92.19160  84.02951  91.21692  89.64491  91.54545
      16  86.83598  90.89352         12.66498   3.349639  89.64491  91.54545  84.02951  91.21692  84.02707  90.24145  89.64245  90.57025
      16  86.83355  89.91779         12.67473   3.352373  89.64245  90.57025  84.02707  90.24145  84.02467  89.26518  89.64004  89.59425
      16  86.83117  88.94126         12.68448   3.355112  89.64004  89.59425  84.02467  89.26518  84.02231  88.28812  89.63767  88.61746
      16  86.82882  87.96394         12.69425   3.357856  89.63767  88.61746  84.02231  88.28812  84.02000  87.31027  89.63533  87.63987
      16  86.82652  86.98582         12.70401   3.360604  89.63533  87.63987  84.02000  87.31027  84.01773  86.33162  89.63305  86.66149
      16  86.82426  86.00690         12.71379   3.363356  89.63305  86.66149  84.01773  86.33162  84.01550  85.35217  89.63080  85.68231
      16  86.82204  85.02719         12.72357   3.366114  89.63080  85.68231  84.01550  85.35217  84.01331  84.37192  89.62859  84.70233
      16  86.81987  84.04667         12.73336   3.368875  89.62859  84.70233  84.01331  84.37192  84.01116  83.39087  89.62643  83.72156
      16  86.81773  83.06536         12.74316   3.371642  89.62643  83.72156  84.01116  83.39087  84.00905  82.40903  89.62431  82.73998
      16  86.81564  82.08325         12.75297   3.374413  89.62431  82.73998  84.00905  82.40903  84.00699  81.42638  89.62223  81.75761
      16  86.81359  81.10034         12.76278   3.377189  89.62223  81.75761  84.00699  81.42638  84.00497  80.44294  89.62019  80.77443
      16  86.81158  80.11663         12.77260   3.379969  89.62019  80.77443  84.00497  80.44294  84.00299  79.45869  89.61820  79.79046
      16  86.80962  79.13212         12.78243   3.382754  89.61820  79.79046  84.00299  79.45869  84.00106  78.47364  89.61625  78.80568
      16  86.80770  78.14681         12.79227   3.385544  89.61625  78.80568  84.00106  78.47364  83.99916  77.48779  89.61434  77.82011
      16  86.80582  77.16069         12.80211   3.388338  89.61434  77.82011  83.99916  77.48779  83.99731  76.50113  89.61247  76.83372
      16  86.80398  76.17377         12.81197   3.391137  89.61247  76.83372  83.99731  76.50113  83.99551  75.51367  89.61065  75.84654
      16  86.80219  75.18605         12.82182   3.393940  89.61065  75.84654  83.99551  75.51367  83.99374  74.52541  89.60887  74.85855
      16  86.80044  74.19752         12.83169   3.396749  89.60887  74.85855  83.99374  74.52541  83.99202  73.53634  89.60713  73.86976
      16  86.79873  73.20818         12.84157   3.399562  89.60713  73.86976  83.99202  73.53634  83.99034  72.54646  89.60544  72.88016
      16  86.79706  72.21804         12.85145   3.402380  89.60544  72.88016  83.99034  72.54646  83.98871  71.55578  89.60378  71.88975
      16  86.79544  71.22710         12.86134   3.405202  89.60378  71.88975  83.98871  71.55578  83.98712  70.56429  89.60218  70.89854
      16  86.79386  70.23534         12.87123   3.408029  89.60218  70.89854  83.98712  70.56429  83.98557  69.57199  89.60061  69.90652
      16  86.79233  69.24278         12.88114   3.410861  89.60061  69.90652  83.98557  69.57199  83.98406  68.57889  89.59909  68.91369
      16  86.79084  68.24940         12.89105   3.413698  89.59909  68.91369  83.98406  68.57889  83.98260  67.58497  89.59761  67.92005
      16  86.78939  67.25522         12.90097   3.416539  89.59761  67.92005  83.98260  67.58497  83.98118  66.59024  89.59618  66.92560
      16  86.78798  66.26023         12.91090   3.419385  89.59618  66.92560  83.98118  66.59024  83.97981  65.59471  89.59479  65.93034
      16  86.78662  65.26443         12.92083   3.422236  89.59479  65.93034  83.97981  65.59471  83.97848  64.59836  89.59344  64.93427
      16  86.78531  64.26781         12.93078   3.425092  89.59344  64.93427  83.97848  64.59836  83.97720  63.60120  89.59214  63.93739
      16  86.78404  63.27038         12.94073   3.427952  89.59214  63.93739  83.97720  63.60120  83.97595  62.60322  89.59088  62.93970
      16  86.78281  62.27214         12.95069   3.430818  89.59088  62.93970  83.97595  62.60322  83.97476  61.60443  89.58967  61.94119
      16  86.78163  61.27309         12.96065   3.433688  89.58967  61.94119  83.97476  61.60443  83.97360  60.60483  89.58850  60.94187
      16  86.78049  60.27322         12.97063   3.436562  89.58850  60.94187  83.97360  60.60483  83.97250  59.60441  89.58737  59.94174
      16  86.77939  59.27253         12.98061   3.439442  89.58737  59.94174  83.97250  59.60441  83.97143  58.60318  89.58629  58.94078
      16  86.77834  58.27103         12.99060   3.442327  89.58629  58.94078  83.97143  58.60318  83.97041  57.60113  89.58526  57.93902
      16  86.77734  57.26872         13.00059   3.445216  89.58526  57.93902  83.97041  57.60113  83.96944  56.59826  89.58426  56.93643
      16  86.77638  56.26558         13.01060   3.448110  89.58426  56.93643  83.96944  56.59826  83.96851  55.59458  89.58332  55.93303
      16  86.77546  55.26163         13.02061   3.451009  89.58332  55.93303  83.96851  55.59458  83.96762  54.59007  89.58242  54.92881
      16  86.77459  54.25686         13.03063   3.453913  89.58242  54.92881  83.96762  54.59007  83.96679  53.58475  89.58156  53.92377
      16  86.77377  53.25127         13.04066   3.456821  89.58156  53.92377  83.96679  53.58475  83.96599  52.57861  89.58075  52.91792
      16  86.77299  52.24486         13.05069   3.459735  89.58075  52.91792  83.96599  52.57861  83.96524  51.57164  89.57998  51.91124
      16  86.77225  51.23763         13.06073   3.462653  89.57998  51.91124  83.96524  51.57164  83.96454  50.56386  89.57926  50.90374
      16  86.77156  50.22957         13.07078   3.465576  89.57926  50.90374  83.96454  50.56386  83.96388  49.55525  89.57859  49.89542
      16  86.77092  49.22070         13.08084   3.468505  89.57859  49.89542  83.96388  49.55525  83.96327  48.54582  89.57796  48.88628
      16  86.77032  48.21100         13.09091   3.471438  89.57796  48.88628  83.96327  48.54582  83.96270  47.53557  89.57737  47.87631
      16  86.76977  47.20048         13.10098   3.474376  89.57737  47.87631  83.96270  47.53557  83.96218  46.52449  89.57683  46.86552
      16  86.76926  46.18913         13.11106   3.477318  89.57683  46.86552  83.96218  46.52449  83.96171  45.51259  89.57634  45.85391
      16  86.76880  45.17696         13.12115   3.480266  89.57634  45.85391  83.96171  45.51259  83.96128  44.49986  89.57590  44.84147
      16  86.76838  44.16396         13.13125   3.483219  89.57590  44.84147  83.96128  44.49986  83.96090  43.48630  89.57549  43.82820
      16  86.76802  43.15014         13.14136   3.486177  89.57549  43.82820  83.96090  43.48630  83.96056  42.47192  89.57514  42.81411
      16  86.76769  42.13549         13.15147   3.489139  89.57514  42.81411  83.96056  42.47192  83.96027  41.45671  89.57483  41.79919
      16  86.76742  41.12001         13.16159   3.492107  89.57483  41.79919  83.96027  41.45671  83.96003  40.44067  89.57457  40.78344
      16  86.76719  40.10370         13.17172   3.495079  89.57457  40.78344  83.96003  40.44067  83.95983  39.42381  89.57436  39.76687
      16  86.76701  39.08657         13.18185   3.498057  89.57436  39.76687  83.95983  39.42381  83.95968  38.40611  89.57419  38.74946
      16  86.76687  38.06860         13.19200   3.501039  89.57419  38.74946  83.95968  38.40611  83.95957  37.38758  89.57407  37.73123
      16  86.76678  37.04980         13.20215   3.504027  89.57407  37.73123  83.95957  37.38758  83.95952  36.36822  89.57399  36.71216
      16  86.76674  36.03018         13.21231   3.507019  89.57399  36.71216  83.95952  36.36822  83.95951  35.34803  89.57397  35.69226
      16  86.76675  35.00972         13.22247   3.510016  89.57397  35.69226  83.95951  35.34803  83.95955  34.32701  89.57399  34.67153
      16  86.76680  33.98842         13.23265   3.513019  89.57399  34.67153  83.95955  34.32701  83.95963  33.30515  89.57405  33.64997
      16  86.76690  32.96629         13.24283   3.516026  89.57405  33.64997  83.95963  33.30515  83.95976  32.28246  89.57417  32.62757
      16  86.76704  31.94333         13.25302   3.519039  89.57417  32.62757  83.95976  32.28246  83.95994  31.25893  89.57433  31.60434
      16  86.76724  30.91954         13.26322   3.522056  89.57433  31.60434  83.95994  31.25893  83.96017  30.23457  89.57454  30.58028
      16  86.76748  29.89490         13.27343   3.525079  89.57454  30.58028  83.96017  30.23457  83.96044  29.20937  89.57479  29.55538
      16  86.76777  28.86944         13.28364   3.528107  89.57479  29.55538  83.96044  29.20937  83.96077  28.18334  89.57510  28.52964
      16  86.76811  27.84313         13.29386   3.531139  89.57510  28.52964  83.96077  28.18334  83.96114  27.15646  89.57545  27.50306
      16  86.76849  26.81599         13.30409   3.534177  89.57545  27.50306  83.96114  27.15646  83.96156  26.12875  89.57585  26.47565
      16  86.76893  25.78800         13.31433   3.537220  89.57585  26.47565  83.96156  26.12875  83.96202  25.10020  89.57630  25.44739
      16  86.76941  24.75918         13.32458   3.540268  89.57630  25.44739  83.96202  25.10020  83.96254  24.07081  89.57679  24.41830
      16  86.76994  23.72952         13.33483   3.543321  89.57679  24.41830  83.96254  24.07081  83.96310  23.04058  89.57734  23.38837
      16  86.77051  22.69902         13.34509   3.546379  89.57734  23.38837  83.96310  23.04058  83.96371  22.00950  89.57793  22.35760
      16  86.77114  21.66767         13.35536   3.549442  89.57793  22.35760  83.96371  22.00950  83.96437  20.97759  89.57857  21.32598
      16  86.77182  20.63549         13.36564   3.552511  89.57857  21.32598  83.96437  20.97759  83.96508  19.94483  89.57926  20.29353
      16  86.77254  19.60246         13.37593   3.555584  89.57926  20.29353  83.96508  19.94483  83.96584  18.91123  89.58000  19.26023
      16  86.77331  18.56859         13.38622   3.558663  89.58000  19.26023  83.96584  18.91123  83.96665  17.87678  89.58079  18.22608
      16  86.77413  17.53387         13.39652   3.561747  89.58079  18.22608  83.96665  17.87678  83.96750  16.84149  89.58163  17.19109
      16  86.77500  16.49831         13.40683   3.564836  89.58163  17.19109  83.96750  16.84149  83.96841  15.80536  89.58251  16.15526
      16  86.77592  15.46190         13.41715   3.567930  89.58251  16.15526  83.96841  15.80536  83.96936  14.76838  89.58345  15.11858
      16  86.77689  14.42465         13.42747   3.571029  89.58345  15.11858  83.96936  14.76838  83.97036  13.73055  89.58443  14.08106
      16  86.77791  13.38654         13.43780   3.574133  89.58443  14.08106  83.97036  13.73055  83.97141  12.69187  89.58546  13.04268
      16  86.77898  12.34759         13.44814   3.577243  89.58546  13.04268  83.97141  12.69187  83.97252  11.65234  89.58655  12.00346
      16  86.78010  11.30780         13.45849   3.580358  89.58655  12.00346  83.97252  11.65234  83.97367  10.61197  89.58768  10.96339
      16  86.78126  10.26715         13.46885   3.583478  89.58768  10.96339  83.97367  10.61197  83.97487   9.57074  89.58886   9.92247
      16  86.78248   9.22565         13.47921   3.586603  89.58886   9.92247  83.97487   9.57074  83.97612   8.52866  89.59009   8.88070
      16  86.78375   8.18330         13.48959   3.589734  89.59009   8.88070  83.97612   8.52866  83.97742   7.48573  89.59138   7.83808
      16  86.78506   7.14010         13.49997   3.592870  89.59138   7.83808  83.97742   7.48573  83.97877   6.44195  89.59271   6.79461
      16  86.78643   6.09605         13.51036   3.596011  89.59271   6.79461  83.97877   6.44195  83.98018   5.39732  89.59409   5.75028
      16  86.78785   5.05114         13.52075   3.599157  89.59409   5.75028  83.98018   5.39732  83.98163   4.35183  89.59552   4.70510
      16  86.78932   4.00538         13.53116   3.602308  89.59552   4.70510  83.98163   4.35183  83.98313   3.30549  89.59701   3.65907
      16  86.79084   2.95877         13.54157   3.605465  89.59701   3.65907  83.98313   3.30549  83.98468   2.25829  89.59854   2.61218
      16  86.79240   1.91130         13.55199   3.608627  89.59854   2.61218  83.98468   2.25829  83.98629   1.21024  89.60013   1.56444
      16  86.79402   0.86297         13.56242   3.611795  89.60013   1.56444  83.98629   1.21024  83.98794   0.16133  89.60176   0.51584
      16  86.79569  -0.18621         13.57286   3.614967  89.60176   0.51584  83.98794   0.16133  83.98965  -0.88843  89.60345  -0.53362
      15  75.96957 127.84140         13.10098   3.403942  78.78353 128.48118  73.16844 128.14734  73.15564 127.20147  78.77071 127.53560
      15  75.95679 126.89529         13.11106   3.406769  78.77071 127.53560  73.15564 127.20147  73.14290 126.25484  78.75795 126.58924
      15  75.94407 125.94841         13.12115   3.409600  78.75795 126.58924  73.14290 126.25484  73.13022 125.30743  78.74525 125.64211
      15  75.93141 125.00076         13.13125   3.412437  78.74525 125.64211  73.13022 125.30743  73.11760 124.35926  78.73261 124.69421
      15  75.91881 124.05234         13.14136   3.415279  78.73261 124.69421  73.11760 124.35926  73.10503 123.41031  78.72003 123.74555
      15  75.90626 123.10314         13.15147   3.418125  78.72003 123.74555  73.10503 123.41031  73.09252 122.46059  78.70751 122.79611
      15  75.89378 122.15318         13.16159   3.420977  78.70751 122.79611  73.09252 122.46059  73.08007 121.51010  78.69504 121.84589
      15  75.88135 121.20244         13.17172   3.423833  78.69504 121.84589  73.08007 121.51010  73.06768 120.55883  78.68263 120.89491
      15  75.86898 120.25093         13.18185   3.426694  78.68263 120.89491  73.06768 120.55883  73.05535 119.60679  78.67029 119.94315
      15  75.85667 119.29864         13.19200   3.429561  78.67029 119.94315  73.05535 119.60679  73.04308 118.65398  78.65800 118.99062
      15  75.84442 118.34558         13.20215   3.432432  78.65800 118.99062  73.04308 118.65398  73.03087 117.70039  78.64577 118.03731
      15  75.83223 117.39174         13.21231   3.435308  78.64577 118.03731  73.03087 117.70039  73.01871 116.74602  78.63360 117.08322
      15  75.82009 116.43713         13.22247   3.438189  78.63360 117.08322  73.01871 116.74602  73.00662 115.79088  78.62149 116.12836
      15  75.80802 115.48174         13.23265   3.441075  78.62149 116.12836  73.00662 115.79088  72.99458 114.83496  78.60943 115.17273
      15  75.79601 114.52557         13.24283   3.443966  78.60943 115.17273  72.99458 114.83496  72.98261 113.87826  78.59744 114.21631
      15  75.78406 113.56863         13.25302   3.446863  78.59744 114.21631  72.98261 113.87826  72.97070 112.92079  78.58551 113.25912
      15  75.77216 112.61090         13.26322   3.449764  78.58551 113.25912  72.97070 112.92079  72.95884 111.96253  78.57364 112.30115
      15  75.76033 111.65240         13.27343   3.452670  78.57364 112.30115  72.95884 111.96253  72.94705 111.00349  78.56183 111.34240
      15  75.74856 110.69311         13.28364   3.455581  78.56183 111.34240  72.94705 111.00349  72.93531 110.04368  78.55008 110.38286
      15  75.73685 109.73305         13.29386   3.458497  78.55008 110.38286  72.93531 110.04368  72.92364 109.08308  78.53839 109.42255
      15  75.72520 108.77220         13.30409   3.461418  78.53839 109.42255  72.92364 109.08308  72.91203 108.12170  78.52676 108.46146
      15  75.71360 107.81057         13.31433   3.464345  78.52676 108.46146  72.91203 108.12170  72.90048 107.15953  78.51519 107.49958
      15  75.70208 106.84816         13.32458   3.467276  78.51519 107.49958  72.90048 107.15953  72.88899 106.19658  78.50368 106.53692
      15  75.69061 105.88496         13.33483   3.470212  78.50368 106.53692  72.88899 106.19658  72.87756 105.23285  78.49224 105.57348
      15  75.67920 104.92098         13.34509   3.473154  78.49224 105.57348  72.87756 105.23285  72.86619 104.26834  78.48085 104.60925
      15  75.66785 103.95622         13.35536   3.476100  78.48085 104.60925  72.86619 104.26834  72.85489 103.30303  78.46953 103.64424
      15  75.65657 102.99067         13.36564   3.479052  78.46953 103.64424  72.85489 103.30303  72.84364 102.33695  78.45827 102.67844
      15  75.64535 102.02433         13.37593   3.482009  78.45827 102.67844  72.84364 102.33695  72.83246 101.37007  78.44707 101.71185
      15  75.63419 101.05721         13.38622   3.484970  78.44707 101.71185  72.83246 101.37007  72.82134 100.40241  78.43593 100.74448
      15  75.62309 100.08930         13.39652   3.487937  78.43593 100.74448  72.82134 100.40241  72.81028  99.43396  78.42485  99.77632
      15  75.61205  99.12060         13.40683   3.490909  78.42485  99.77632  72.81028  99.43396  72.79928  98.46472  78.41384  98.80737
      15  75.60108  98.15111         13.41715   3.493887  78.41384  98.80737  72.79928  98.46472  72.78835  97.49469  78.40289  97.83764
      15  75.59017  97.18083         13.42747   3.496869  78.40289  97.83764  72.78835  97.49469  72.77748  96.52387  78.39200  96.86711
      15  75.57932  96.20977         13.43780   3.499856  78.39200  96.86711  72.77748  96.52387  72.76667  95.55226  78.38117  95.89580
      15  75.56854  95.23791         13.44814   3.502849  78.38117  95.89580  72.76667  95.55226  72.75593  94.57986  78.37041  94.92369
      15  75.55781  94.26526         13.45849   3.505847  78.37041  94.92369  72.75593  94.57986  72.74524  93.60667  78.35971  93.95079
      15  75.54715  93.29182         13.46885   3.508850  78.35971  93.95079  72.74524  93.60667  72.73463  92.63268  78.34907  92.97710
      15  75.53656  92.31758         13.47921   3.511858  78.34907  92.97710  72.73463  92.63268  72.72407  91.65790  78.33850  92.00261
      15  75.52603  91.34255         13.48959   3.514871  78.33850  92.00261  72.72407  91.65790  72.71358  90.68233  78.32799  91.02733
      15  75.51556  90.36673         13.49997   3.517890  78.32799  91.02733  72.71358  90.68233  72.70315  89.70596  78.31754  90.05126
      15  75.50515  89.39011         13.51036   3.520914  78.31754  90.05126  72.70315  89.70596  72.69279  88.72880  78.30716  89.07439
      15  75.49481  88.41269         13.52075   3.523943  78.30716  89.07439  72.69279  88.72880  72.68249  87.75084  78.29684  88.09673
      15  75.48453  87.43448         13.53116   3.526977  78.29684  88.09673  72.68249  87.75084  72.67225  86.77208  78.28659  87.11827
      15  75.47432  86.45548         13.54157   3.530016  78.28659  87.11827  72.67225  86.77208  72.66208  85.79252  78.27640  86.13901
      15  75.46417  85.47567         13.55199   3.533061  78.27640  86.13901  72.66208  85.79252  72.65197  84.81217  78.26627  85.15896
      15  75.45409  84.49507         13.56242   3.536111  78.26627  85.15896  72.65197  84.81217  72.64193  83.83102  78.25621  84.17810
      15  75.44407  83.51367         13.57286   3.539166  78.25621  84.17810  72.64193  83.83102  72.63195  82.84907  78.24622  83.19645
      15  75.43412  82.53146         13.58330   3.542227  78.24622  83.19645  72.63195  82.84907  72.62204  81.86631  78.23629  82.21400
      15  75.42423  81.54846         13.59375   3.545292  78.23629  82.21400  72.62204  81.86631  72.61220  80.88276  78.22642  81.23075
      15  75.41440  80.56466         13.60421   3.548363  78.22642  81.23075  72.61220  80.88276  72.60241  79.89840  78.21662  80.24669
      15  75.40465  79.58005         13.61468   3.551440  78.21662  80.24669  72.60241  79.89840  72.59270  78.91325  78.20689  79.26184
      15  75.39495  78.59464         13.62516   3.554522  78.20689  79.26184  72.59270  78.91325  72.58305  77.92729  78.19722  78.27618
      15  75.38533  77.60843         13.63564   3.557609  78.19722  78.27618  72.58305  77.92729  72.57346  76.94052  78.18761  77.28971
      15  75.37576  76.62141         13.64614   3.560701  78.18761  77.28971  72.57346  76.94052  72.56394  75.95295  78.17808  76.30245
      15  75.36627  75.63359         13.65664   3.563799  78.17808  76.30245  72.56394  75.95295  72.55449  74.96458  78.16860  75.31438
      15  75.35684  74.64497         13.66715   3.566902  78.16860  75.31438  72.55449  74.96458  72.54511  73.97540  78.15920  74.32550
      15  75.34748  73.65554         13.67766   3.570010  78.15920  74.32550  72.54511  73.97540  72.53579  72.98541  78.14986  73.33582
      15  75.33818  72.66530         13.68819   3.573124  78.14986  73.33582  72.53579  72.98541  72.52653  71.99462  78.14059  72.34533
      15  75.32895  71.67425         13.69872   3.576243  78.14059  72.34533  72.52653  71.99462  72.51735  71.00301  78.13138  71.35404
      15  75.31979  70.68240         13.70926   3.579367  78.13138  71.35404  72.51735  71.00301  72.50823  70.01060  78.12225  70.36193
      15  75.31070  69.68974         13.71981   3.582497  78.12225  70.36193  72.50823  70.01060  72.49918  69.01738  78.11317  69.36902
      15  75.30167  68.69627         13.73037   3.585632  78.11317  69.36902  72.49918  69.01738  72.49019  68.02335  78.10417  68.37530
      15  75.29271  67.70199         13.74094   3.588773  78.10417  68.37530  72.49019  68.02335  72.48127  67.02851  78.09523  67.38076
      15  75.28382  66.70689         13.75151   3.591919  78.09523  67.38076  72.48127  67.02851  72.47243  66.03286  78.08637  66.38542
      15  75.27499  65.71099         13.76209   3.595071  78.08637  66.38542  72.47243  66.03286  72.46364  65.03640  78.07757  65.38926
      15  75.26623  64.71428         13.77268   3.598227  78.07757  65.38926  72.46364  65.03640  72.45493  64.03912  78.06883  64.39230
      15  75.25754  63.71675         13.78328   3.601390  78.06883  64.39230  72.45493  64.03912  72.44629  63.04103  78.06017  63.39452
      15  75.24892  62.71840         13.79389   3.604558  78.06017  63.39452  72.44629  63.04103  72.43771  62.04212  78.05157  62.39592
      15  75.24037  61.71925         13.80450   3.607731  78.05157  62.39592  72.43771  62.04212  72.42920  61.04241  78.04304  61.39652
      15  75.23189  60.71928         13.81513   3.610910  78.04304  61.39652  72.42920  61.04241  72.42076  60.04187  78.03458  60.39629
      15  75.22347  59.71849         13.82576   3.614094  78.03458  60.39629  72.42076  60.04187  72.41239  59.04052  78.02619  59.39525
      15  75.21512  58.71689         13.83640   3.617284  78.02619  59.39525  72.41239  59.04052  72.40409  58.03835  78.01787  58.39340
      15  75.20685  57.71447         13.84705   3.620479  78.01787  58.39340  72.40409  58.03835  72.39585  57.03536  78.00962  57.39072
      15  75.19864  56.71123         13.85770   3.623680  78.00962  57.39072  72.39585  57.03536  72.38769  56.03156  78.00143  56.38723
      15  75.19050  55.70717         13.86836   3.626886  78.00143  56.38723  72.38769  56.03156  72.37960  55.02694  77.99332  55.38293
      15  75.18243  54.70229         13.87904   3.630098  77.99332  55.38293  72.37960  55.02694  72.37157  54.02149  77.98528  54.37780
      15  75.17443  53.69660         13.88972   3.633315  77.98528  54.37780  72.37157  54.02149  72.36362  53.01523  77.97730  53.37185
      15  75.16650  52.69008         13.90041   3.636538  77.97730  53.37185  72.36362  53.01523  72.35573  52.00815  77.96940  52.36508
      15  75.15864  51.68274         13.91110   3.639767  77.96940  52.36508  72.35573  52.00815  72.34792  51.00024  77.96156  51.35749
      15  75.15085  50.67458         13.92181   3.643001  77.96156  51.35749  72.34792  51.00024  72.34017  49.99151  77.95380  50.34908
      15  75.14314  49.66560         13.93252   3.646240  77.95380  50.34908  72.34017  49.99151  72.33250  48.98196  77.94610  49.33984
      15  75.13549  48.65580         13.94324   3.649486  77.94610  49.33984  72.33250  48.98196  72.32490  47.97158  77.93848  48.32978
      15  75.12791  47.64517         13.95397   3.652736  77.93848  48.32978  72.32490  47.97158  72.31737  46.96038  77.93093  47.31890
      15  75.12040  46.63371         13.96471   3.655993  77.93093  47.31890  72.31737  46.96038  72.30991  45.94835  77.92345  46.30719
      15  75.11297  45.62143         13.97546   3.659255  77.92345  46.30719  72.30991  45.94835  72.30252  44.93550  77.91604  45.29466
      15  75.10560  44.60833         13.98621   3.662522  77.91604  45.29466  72.30252  44.93550  72.29520  43.92182  77.90870  44.28130
      15  75.09831  43.59439         13.99697   3.665796  77.90870  44.28130  72.29520  43.92182  72.28795  42.90731  77.90143  43.26712
      15  75.09109  42.57963         14.00774   3.669075  77.90143  43.26712  72.28795  42.90731  72.28078  41.89198  77.89424  42.25210
      15  75.08394  41.56404         14.01852   3.672359  77.89424  42.25210  72.28078  41.89198  72.27367  40.87581  77.88711  41.23626
      15  75.07686  40.54762         14.02931   3.675649  77.88711  41.23626  72.27367  40.87581  72.26664  39.85882  77.88006  40.21959
      15  75.06986  39.53038         14.04011   3.678945  77.88006  40.21959  72.26664  39.85882  72.25969  38.84099  77.87308  39.20209
      15  75.06293  38.51230         14.05091   3.682247  77.87308  39.20209  72.25969  38.84099  72.25280  37.82234  77.86618  38.18375
      15  75.05607  37.49339         14.06172   3.685554  77.86618  38.18375  72.25280  37.82234  72.24599  36.80285  77.85934  37.16459
      15  75.04928  36.47365         14.07254   3.688867  77.85934  37.16459  72.24599  36.80285  72.23925  35.78253  77.85258  36.14460
      15  75.04256  35.45307         14.08337   3.692186  77.85258  36.14460  72.23925  35.78253  72.23258  34.76138  77.84589  35.12377
      15  75.03592  34.43167         14.09421   3.695510  77.84589  35.12377  72.23258  34.76138  72.22598  33.73939  77.83928  34.10211
      15  75.02935  33.40942         14.10506   3.698840  77.83928  34.10211  72.22598  33.73939  72.21946  32.71657  77.83273  33.07961
      15  75.02286  32.38635         14.11591   3.702176  77.83273  33.07961  72.21946  32.71657  72.21301  31.69291  77.82627  32.05628
      15  75.01644  31.36244         14.12677   3.705518  77.82627  32.05628  72.21301  31.69291  72.20664  30.66842  77.81987  31.03211
      15  75.01009  30.33769         14.13764   3.708865  77.81987  31.03211  72.20664  30.66842  72.20034  29.64309  77.81355  30.00711
      15  75.00382  29.31210         14.14852   3.712218  77.81355  30.00711  72.20034  29.64309  72.19411  28.61692  77.80730  28.98127
      15  74.99762  28.28568         14.15941   3.715577  77.80730  28.98127  72.19411  28.61692  72.18796  27.58991  77.80113  27.95460
      15  74.99149  27.25842         14.17031   3.718942  77.80113  27.95460  72.18796  27.58991  72.18189  26.56207  77.79503  26.92708
      15  74.98544  26.23032         14.18121   3.722312  77.79503  26.92708  72.18189  26.56207  72.17588  25.53338  77.78901  25.89873
      15  74.97946  25.20138         14.19213   3.725689  77.78901  25.89873  72.17588  25.53338  72.16995  24.50386  77.78306  24.86953
      15  74.97356  24.17160         14.20305   3.729071  77.78306  24.86953  72.16995  24.50386  72.16410  23.47349  77.77718  23.83950
      15  74.96774  23.14098         14.21398   3.732459  77.77718  23.83950  72.16410  23.47349  72.15832  22.44228  77.77138  22.80862
      15  74.96199  22.10952         14.22491   3.735852  77.77138  22.80862  72.15832  22.44228  72.15262  21.41023  77.76566  21.77690
      15  74.95631  21.07721         14.23586   3.739252  77.76566  21.77690  72.15262  21.41023  72.14699  20.37734  77.76001  20.74434
      15  74.95071  20.04406         14.24682   3.742658  77.76001  20.74434  72.14699  20.37734  72.14144  19.34360  77.75443  19.71094
      15  74.94518  19.01007         14.25778   3.746069  77.75443  19.71094  72.14144  19.34360  72.13597  18.30902  77.74894  18.67669
      15  74.93974  17.97523         14.26875   3.749486  77.74894  18.67669  72.13597  18.30902  72.13057  17.27359  77.74351  17.64160
      15  74.93436  16.93954         14.27973   3.752909  77.74351  17.64160  72.13057  17.27359  72.12524  16.23731  77.73817  16.60566
      15  74.92907  15.90301         14.29072   3.756338  77.73817  16.60566  72.12524  16.23731  72.12000  15.20019  77.73290  15.56887
      15  74.92385  14.86564         14.30172   3.759773  77.73290  15.56887  72.12000  15.20019  72.11482  14.16222  77.72771  14.53124
      15  74.91870  13.82741         14.31272   3.763214  77.72771  14.53124  72.11482  14.16222  72.10973  13.12340  77.72259  13.49276
      15  74.91364  12.78834         14.32374   3.766661  77.72259  13.49276  72.10973  13.12340  72.10471  12.08374  77.71755  12.45343
      15  74.90865  11.74842         14.33476   3.770114  77.71755  12.45343  72.10471  12.08374  72.09977  11.04322  77.71259  11.41325
      15  74.90374  10.70764         14.34579   3.773572  77.71259  11.41325  72.09977  11.04322  72.09491  10.00185  77.70771  10.37222
      15  74.89890   9.66602         14.35683   3.777037  77.70771  10.37222  72.09491  10.00185  72.09013   8.95963  77.70290   9.33035
      15  74.89414   8.62355         14.36788   3.780507  77.70290   9.33035  72.09013   8.95963  72.08542   7.91656  77.69817   8.28761
      15  74.88946   7.58022         14.37893   3.783984  77.69817   8.28761  72.08542   7.91656  72.08079   6.87264  77.69352   7.24403
      15  74.88486   6.53604         14.39000   3.787467  77.69352   7.24403  72.08079   6.87264  72.07624   5.82786  77.68894   6.19960
      15  74.88034   5.49101         14.40107   3.790955  77.68894   6.19960  72.07624   5.82786  72.07177   4.78223  77.68445   5.15431
      15  74.87589   4.44512         14.41215   3.794450  77.68445   5.15431  72.07177   4.78223  72.06737   3.73575  77.68003   4.10816
      15  74.87153   3.39838         14.42324   3.797950  77.68003   4.10816  72.06737   3.73575  72.06305   2.68840  77.67569   3.06116
      15  74.86724   2.35078         14.43434   3.801457  77.67569   3.06116  72.06305   2.68840  72.05882   1.64020  77.67143   2.01331
      15  74.86303   1.30232         14.44545   3.804969  77.67143   2.01331  72.05882   1.64020  72.05466   0.59115  77.66725   0.96460
      15  74.85890   0.25301         14.45657   3.808488  77.66725   0.96460  72.05466   0.59115  72.05058  -0.45876  77.66315  -0.08497
      14  63.36710 127.86827         14.01852   3.581704  66.18423 128.51702  60.57021 128.16576  60.54999 127.21937  66.16400 127.57092
      14  63.34690 126.92164         14.02931   3.584831  66.16400 127.57092  60.54999 127.21937  60.52983 126.27219  66.14381 126.62406
      14  63.32675 125.97424         14.04011   3.587963  66.14381 126.62406  60.52983 126.27219  60.50971 125.32425  66.12367 125.67642
      14  63.30664 125.02606         14.05091   3.591100  66.12367 125.67642  60.50971 125.32425  60.48964 124.37554  66.10358 124.72802
      14  63.28659 124.07712         14.06172   3.594243  66.10358 124.72802  60.48964 124.37554  60.46962 123.42605  66.08354 123.77884
      14  63.26658 123.12740         14.07254   3.597392  66.08354 123.77884  60.46962 123.42605  60.44965 122.47579  66.06355 122.82889
      14  63.24663 122.17690         14.08337   3.600547  66.06355 122.82889  60.44965 122.47579  60.42973 121.52476  66.04361 121.87816
      14  63.22672 121.22564         14.09421   3.603707  66.04361 121.87816  60.42973 121.52476  60.40985 120.57295  66.02372 120.92666
      14  63.20686 120.27360         14.10506   3.606872  66.02372 120.92666  60.40985 120.57295  60.39003 119.62036  66.00388 119.97439
      14  63.18706 119.32078         14.11591   3.610043  66.00388 119.97439  60.39003 119.62036  60.37026 118.66700  65.98409 119.02134
      14  63.16730 118.36718         14.12677   3.613220  65.98409 119.02134  60.37026 118.66700  60.35054 117.71286  65.96434 118.06751
      14  63.14759 117.41281         14.13764   3.616403  65.96434 118.06751  60.35054 117.71286  60.33086 116.75795  65.94465 117.11291
      14  63.12793 116.45767         14.14852   3.619591  65.94465 117.11291  60.33086 116.75795  60.31124 115.80226  65.92501 116.15753
      14  63.10833 115.50174         14.15941   3.622785  65.92501 116.15753  60.31124 115.80226  60.29167 114.84579  65.90542 115.20137
      14  63.08877 114.54504         14.17031   3.625985  65.90542 115.20137  60.29167 114.84579  60.27215 113.88853  65.88588 114.24443
      14  63.06926 113.58755         14.18121   3.629190  65.88588 114.24443  60.27215 113.88853  60.25268 112.93050  65.86639 113.28672
      14  63.04981 112.62929         14.19213   3.632401  65.86639 113.28672  60.25268 112.93050  60.23326 111.97169  65.84695 112.32822
      14  63.03040 111.67024         14.20305   3.635618  65.84695 112.32822  60.23326 111.97169  60.21389 111.01210  65.82756 111.36894
      14  63.01105 110.71042         14.21398   3.638840  65.82756 111.36894  60.21389 111.01210  60.19457 110.05172  65.80822 110.40888
      14  62.99175 109.74981         14.22491   3.642068  65.80822 110.40888  60.19457 110.05172  60.17530 109.09057  65.78893 109.44804
      14  62.97249 108.78842         14.23586   3.645302  65.78893 109.44804  60.17530 109.09057  60.15609 108.12862  65.76969 108.48642
      14  62.95329 107.82624         14.24682   3.648542  65.76969 108.48642  60.15609 108.12862  60.13692 107.16590  65.75051 107.52401
      14  62.93415 106.86328         14.25778   3.651787  65.75051 107.52401  60.13692 107.16590  60.11781 106.20239  65.73138 106.56082
      14  62.91505 105.89954         14.26875   3.655038  65.73138 106.56082  60.11781 106.20239  60.09875 105.23809  65.71230 105.59684
      14  62.89600 104.93501         14.27973   3.658295  65.71230 105.59684  60.09875 105.23809  60.07974 104.27301  65.69327 104.63208
      14  62.87701 103.96970         14.29072   3.661558  65.69327 104.63208  60.07974 104.27301  60.06078 103.30714  65.67429 103.66653
      14  62.85807 103.00359         14.30172   3.664826  65.67429 103.66653  60.06078 103.30714  60.04188 102.34049  65.65536 102.70020
      14  62.83918 102.03671         14.31272   3.668101  65.65536 102.70020  60.04188 102.34049  60.02303 101.37304  65.63649 101.73307
      14  62.82035 101.06903         14.32374   3.671381  65.63649 101.73307  60.02303 101.37304  60.00423 100.40481  65.61767 100.76516
      14  62.80156 100.10056         14.33476   3.674667  65.61767 100.76516  60.00423 100.40481  59.98548  99.43579  65.59890  99.79646
      14  62.78283  99.13130         14.34579   3.677959  65.59890  99.79646  59.98548  99.43579  59.96678  98.46598  65.58019  98.82697
      14  62.76415  98.16126         14.35683   3.681257  65.58019  98.82697  59.96678  98.46598  59.94814  97.49537  65.56153  97.85669
      14  62.74553  97.19042         14.36788   3.684560  65.56153  97.85669  59.94814  97.49537  59.92955  96.52398  65.54292  96.88562
      14  62.72695  96.21879         14.37893   3.687870  65.54292  96.88562  59.92955  96.52398  59.91102  95.55179  65.52436  95.91376
      14  62.70843  95.24637         14.39000   3.691185  65.52436  95.91376  59.91102  95.55179  59.89254  94.57881  65.50586  94.94110
      14  62.68997  94.27316         14.40107   3.694506  65.50586  94.94110  59.89254  94.57881  59.87411  93.60504  65.48741  93.96766
      14  62.67156  93.29915         14.41215   3.697833  65.48741  93.96766  59.87411  93.60504  59.85573  92.63047  65.46901  92.99342
      14  62.65320  92.32435         14.42324   3.701166  65.46901  92.99342  59.85573  92.63047  59.83741  91.65511  65.45067  92.01838
      14  62.63489  91.34875         14.43434   3.704505  65.45067  92.01838  59.83741  91.65511  59.81915  90.67895  65.43238  91.04255
      14  62.61664  90.37236         14.44545   3.707850  65.43238  91.04255  59.81915  90.67895  59.80093  89.70200  65.41415  90.06592
      14  62.59845  89.39517         14.45657   3.711201  65.41415  90.06592  59.80093  89.70200  59.78277  88.72425  65.39597  89.08850
      14  62.58030  88.41719         14.46769   3.714558  65.39597  89.08850  59.78277  88.72425  59.76467  87.74570  65.37784  88.11028
      14  62.56222  87.43840         14.47883   3.717920  65.37784  88.11028  59.76467  87.74570  59.74662  86.76635  65.35977  87.13127
      14  62.54418  86.45882         14.48997   3.721289  65.35977  87.13127  59.74662  86.76635  59.72862  85.78620  65.34175  86.15145
      14  62.52620  85.47844         14.50112   3.724664  65.34175  86.15145  59.72862  85.78620  59.71068  84.80526  65.32379  85.17084
      14  62.50828  84.49726         14.51228   3.728045  65.32379  85.17084  59.71068  84.80526  59.69280  83.82351  65.30588  84.18942
      14  62.49041  83.51528         14.52344   3.731431  65.30588  84.18942  59.69280  83.82351  59.67497  82.84097  65.28803  83.20721
      14  62.47260  82.53250         14.53462   3.734824  65.28803  83.20721  59.67497  82.84097  59.65719  81.85762  65.27023  82.22419
      14  62.45484  81.54892         14.54580   3.738223  65.27023  82.22419  59.65719  81.85762  59.63947  80.87347  65.25249  81.24037
      14  62.43714  80.56453         14.55700   3.741627  65.25249  81.24037  59.63947  80.87347  59.62181  79.88851  65.23481  80.25575
      14  62.41949  79.57934         14.56820   3.745038  65.23481  80.25575  59.62181  79.88851  59.60420  78.90275  65.21718  79.27033
      14  62.40190  78.59335         14.57941   3.748455  65.21718  79.27033  59.60420  78.90275  59.58665  77.91619  65.19960  78.28410
      14  62.38436  77.60655         14.59063   3.751878  65.19960  78.28410  59.58665  77.91619  59.56915  76.92882  65.18208  77.29707
      14  62.36688  76.61895         14.60186   3.755307  65.18208  77.29707  59.56915  76.92882  59.55171  75.94065  65.16462  76.30923
      14  62.34946  75.63054         14.61309   3.758742  65.16462  76.30923  59.55171  75.94065  59.53432  74.95167  65.14721  75.32059
      14  62.33209  74.64133         14.62434   3.762183  65.14721  75.32059  59.53432  74.95167  59.51700  73.96188  65.12986  74.33114
      14  62.31478  73.65130         14.63559   3.765631  65.12986  74.33114  59.51700  73.96188  59.49973  72.97129  65.11257  73.34088
      14  62.29753  72.66047         14.64686   3.769084  65.11257  73.34088  59.49973  72.97129  59.48251  71.97989  65.09533  72.34982
      14  62.28033  71.66884         14.65813   3.772544  65.09533  72.34982  59.48251  71.97989  59.46535  70.98767  65.07815  71.35794
      14  62.26319  70.67639         14.66941   3.776009  65.07815  71.35794  59.46535  70.98767  59.44825  69.99465  65.06103  70.36526
      14  62.24611  69.68313         14.68070   3.779481  65.06103  70.36526  59.44825  69.99465  59.43121  69.00082  65.04397  69.37177
      14  62.22908  68.68906         14.69199   3.782959  65.04397  69.37177  59.43121  69.00082  59.41422  68.00617  65.02696  68.37746
      14  62.21211  67.69418         14.70330   3.786443  65.02696  68.37746  59.41422  68.00617  59.39730  67.01071  65.01001  67.38235
      14  62.19520  66.69849         14.71461   3.789934  65.01001  67.38235  59.39730  67.01071  59.38043  66.01444  64.99311  66.38642
      14  62.17835  65.70198         14.72594   3.793430  64.99311  66.38642  59.38043  66.01444  59.36361  65.01736  64.97628  65.38968
      14  62.16155  64.70466         14.73727   3.796933  64.97628  65.38968  59.36361  65.01736  59.34686  64.01946  64.95950  64.39212
      14  62.14482  63.70653         14.74861   3.800442  64.95950  64.39212  59.34686  64.01946  59.33016  63.02075  64.94278  63.39376
      14  62.12814  62.70758         14.75996   3.803957  64.94278  63.39376  59.33016  63.02075  59.31352  62.02122  64.92612  62.39457
      14  62.11152  61.70782         14.77132   3.807479  64.92612  62.39457  59.31352  62.02122  59.29694  61.02088  64.90951  61.39457
      14  62.09495  60.70724         14.78268   3.811006  64.90951  61.39457  59.29694  61.02088  59.28042  60.01972  64.89297  60.39376
      14  62.07845  59.70584         14.79406   3.814540  64.89297  60.39376  59.28042  60.01972  59.26396  59.01774  64.87648  59.39213
      14  62.06200  58.70362         14.80544   3.818080  64.87648  59.39213  59.26396  59.01774  59.24755  58.01494  64.86006  58.38967
      14  62.04562  57.70059         14.81684   3.821627  64.86006  58.38967  59.24755  58.01494  59.23121  57.01132  64.84369  57.38641
      14  62.02929  56.69674         14.82824   3.825180  64.84369  57.38641  59.23121  57.01132  59.21492  56.00689  64.82738  56.38232
      14  62.01302  55.69207         14.83965   3.828739  64.82738  56.38232  59.21492  56.00689  59.19870  55.00163  64.81113  55.37741
      14  61.99682  54.68657         14.85107   3.832304  64.81113  55.37741  59.19870  55.00163  59.18253  53.99555  64.79494  54.37168
      14  61.98067  53.68026         14.86250   3.835876  64.79494  54.37168  59.18253  53.99555  59.16642  52.98865  64.77881  53.36513
      14  61.96458  52.67312         14.87393   3.839454  64.77881  53.36513  59.16642  52.98865  59.15038  51.98093  64.76274  52.35776
      14  61.94855  51.66517         14.88538   3.843038  64.76274  52.35776  59.15038  51.98093  59.13439  50.97238  64.74673  51.34957
      14  61.93258  50.65638         14.89684   3.846629  64.74673  51.34957  59.13439  50.97238  59.11846  49.96301  64.73078  50.34055
      14  61.91667  49.64678         14.90830   3.850226  64.73078  50.34055  59.11846  49.96301  59.10259  48.95282  64.71489  49.33071
      14  61.90082  48.63635         14.91977   3.853830  64.71489  49.33071  59.10259  48.95282  59.08679  47.94180  64.69906  48.32004
      14  61.88503  47.62509         14.93125   3.857439  64.69906  48.32004  59.08679  47.94180  59.07104  46.92995  64.68329  47.30855
      14  61.86931  46.61301         14.94274   3.861056  64.68329  47.30855  59.07104  46.92995  59.05536  45.91728  64.66758  46.29623
      14  61.85364  45.60010         14.95424   3.864678  64.66758  46.29623  59.05536  45.91728  59.03973  44.90378  64.65193  45.28308
      14  61.83804  44.58636         14.96575   3.868307  64.65193  45.28308  59.03973  44.90378  59.02417  43.88945  64.63634  44.26911
      14  61.82249  43.57180         14.97727   3.871943  64.63634  44.26911  59.02417  43.88945  59.00867  42.87429  64.62082  43.25431
      14  61.80701  42.55640         14.98879   3.875585  64.62082  43.25431  59.00867  42.87429  58.99323  41.85830  64.60535  42.23868
      14  61.79159  41.54018         15.00032   3.879233  64.60535  42.23868  58.99323  41.85830  58.97785  40.84149  64.58995  41.22222
      14  61.77623  40.52312         15.01187   3.882888  64.58995  41.22222  58.97785  40.84149  58.96253  39.82384  64.57461  40.20493
      14  61.76093  39.50524         15.02342   3.886549  64.57461  40.20493  58.96253  39.82384  58.94728  38.80535  64.55933  39.18680
      14  61.74569  38.48652         15.03498   3.890217  64.55933  39.18680  58.94728  38.80535  58.93209  37.78604  64.54411  38.16785
      14  61.73052  37.46697         15.04655   3.893892  64.54411  38.16785  58.93209  37.78604  58.91696  36.76589  64.52896  37.14806
      14  61.71541  36.44658         15.05813   3.897572  64.52896  37.14806  58.91696  36.76589  58.90189  35.74491  64.51387  36.12744
      14  61.70036  35.42537         15.06972   3.901260  64.51387  36.12744  58.90189  35.74491  58.88688  34.72310  64.49883  35.10599
      14  61.68537  34.40331         15.08131   3.904954  64.49883  35.10599  58.88688  34.72310  58.87194  33.70045  64.48387  34.08370
      14  61.67045  33.38043         15.09292   3.908654  64.48387  34.08370  58.87194  33.70045  58.85706  32.67696  64.46896  33.06057
      14  61.65559  32.35670         15.10453   3.912361  64.46896  33.06057  58.85706  32.67696  58.84224  31.65264  64.45412  32.03661
      14  61.64079  31.33214         15.11616   3.916075  64.45412  32.03661  58.84224  31.65264  58.82749  30.62747  64.43934  31.01182
      14  61.62605  30.30674         15.12779   3.919795  64.43934  31.01182  58.82749  30.62747  58.81280  29.60147  64.42463  29.98618
      14  61.61138  29.28050         15.13943   3.923522  64.42463  29.98618  58.81280  29.60147  58.79817  28.57463  64.40997  28.95971
      14  61.59677  28.25343         15.15108   3.927255  64.40997  28.95971  58.79817  28.57463  58.78361  27.54696  64.39539  27.93239
      14  61.58223  27.22551         15.16274   3.930995  64.39539  27.93239  58.78361  27.54696  58.76911  26.51844  64.38086  26.90424
      14  61.56775  26.19676         15.17441   3.934741  64.38086  26.90424  58.76911  26.51844  58.75467  25.48908  64.36640  25.87525
      14  61.55333  25.16716         15.18609   3.938494  64.36640  25.87525  58.75467  25.48908  58.74030  24.45887  64.35200  24.84541
      14  61.53898  24.13672         15.19777   3.942254  64.35200  24.84541  58.74030  24.45887  58.72599  23.42783  64.33767  23.81474
      14  61.52470  23.10544         15.20947   3.946021  64.33767  23.81474  58.72599  23.42783  58.71175  22.39594  64.32340  22.78322
      14  61.51047  22.07331         15.22117   3.949794  64.32340  22.78322  58.71175  22.39594  58.69757  21.36321  64.30920  21.75085
      14  61.49631  21.04034         15.23288   3.953574  64.30920  21.75085  58.69757  21.36321  58.68346  20.32963  64.29506  20.71765
      14  61.48222  20.00653         15.24461   3.957360  64.29506  20.71765  58.68346  20.32963  58.66941  19.29521  64.28099  19.68360
      14  61.46819  18.97187         15.25634   3.961153  64.28099  19.68360  58.66941  19.29521  58.65543  18.25994  64.26698  18.64870
      14  61.45423  17.93636         15.26808   3.964953  64.26698  18.64870  58.65543  18.25994  58.64151  17.22382  64.25304  17.61296
      14  61.44033  16.90001         15.27983   3.968760  64.25304  17.61296  58.64151  17.22382  58.62766  16.18686  64.23916  16.57636
      14  61.42650  15.86280         15.29158   3.972573  64.23916  16.57636  58.62766  16.18686  58.61388  15.14904  64.22535  15.53893
      14  61.41274  14.82475         15.30335   3.976393  64.22535  15.53893  58.61388  15.14904  58.60016  14.11038  64.21160  14.50064
      14  61.39904  13.78586         15.31513   3.980220  64.21160  14.50064  58.60016  14.11038  58.58650  13.07087  64.19792  13.46150
      14  61.38540  12.74611         15.32691   3.984054  64.19792  13.46150  58.58650  13.07087  58.57291  12.03051  64.18431  12.42152
      14  61.37183  11.70551         15.33871   3.987894  64.18431  12.42152  58.57291  12.03051  58.55939  10.98930  64.17076  11.38068
      14  61.35833  10.66405         15.35051   3.991742  64.17076  11.38068  58.55939  10.98930  58.54594   9.94723  64.15728  10.33899
      14  61.34490   9.62175         15.36232   3.995596  64.15728  10.33899  58.54594   9.94723  58.53255   8.90431  64.14386   9.29645
      14  61.33153   8.57859         15.37415   3.999457  64.14386   9.29645  58.53255   8.90431  58.51923   7.86054  64.13052   8.25306
      14  61.31823   7.53458         15.38598   4.003324  64.13052   8.25306  58.51923   7.86054  58.50597   6.81591  64.11723   7.20881
      14  61.30499   6.48972         15.39782   4.007199  64.11723   7.20881  58.50597   6.81591  58.49279   5.77043  64.10402   6.16371
      14  61.29183   5.44400         15.40967   4.011080  64.10402   6.16371  58.49279   5.77043  58.47967   4.72409  64.09087   5.11775
      14  61.27873   4.39743         15.42152   4.014968  64.09087   5.11775  58.47967   4.72409  58.46661   3.67690  64.07779   4.07094
      14  61.26569   3.34999         15.43339   4.018863  64.07779   4.07094  58.46661   3.67690  58.45363   2.62885  64.06478   3.02327
      14  61.25273   2.30170         15.44527   4.022765  64.06478   3.02327  58.45363   2.62885  58.44071   1.57994  64.05184   1.97474
      14  61.23983   1.25256         15.45715   4.026674  64.05184   1.97474  58.44071   1.57994  58.42786   0.53017  64.03896   0.92535
      14  61.22701   0.20255         15.46905   4.030590  64.03896   0.92535  58.42786   0.53017  58.41508  -0.52046  64.02616  -0.12489
      13  48.91011 128.22218         15.06972   3.784830  51.73121 128.88107  46.11847 128.50994  46.08905 127.56312  51.70177 127.93459
      13  48.88071 127.27515         15.08131   3.788299  51.70177 127.93459  46.08905 127.56312  46.05968 126.61553  51.67237 126.98734
      13  48.85135 126.32734         15.09292   3.791774  51.67237 126.98734  46.05968 126.61553  46.03036 125.66716  51.64304 126.03932
      13  48.82205 125.37876         15.10453   3.795255  51.64304 126.03932  46.03036 125.66716  46.00110 124.71803  51.61375 125.09052
      13  48.79281 124.42941         15.11616   3.798743  51.61375 125.09052  46.00110 124.71803  45.97189 123.76812  51.58452 124.14095
      13  48.76361 123.47928         15.12779   3.802237  51.58452 124.14095  45.97189 123.76812  45.94274 122.81743  51.55535 123.19061
      13  48.73448 122.52838         15.13943   3.805738  51.55535 123.19061  45.94274 122.81743  45.91364 121.86597  51.52622 122.23949
      13  48.70539 121.57670         15.15108   3.809245  51.52622 122.23949  45.91364 121.86597  45.88459 120.91373  51.49715 121.28760
      13  48.67636 120.62425         15.16274   3.812758  51.49715 121.28760  45.88459 120.91373  45.85560 119.96071  51.46814 120.33493
      13  48.64739 119.67101         15.17441   3.816278  51.46814 120.33493  45.85560 119.96071  45.82666 119.00692  51.43918 119.38148
      13  48.61846 118.71700         15.18609   3.819804  51.43918 119.38148  45.82666 119.00692  45.79778 118.05235  51.41027 118.42725
      13  48.58960 117.76222         15.19777   3.823337  51.41027 118.42725  45.79778 118.05235  45.76895 117.09700  51.38142 117.47225
      13  48.56079 116.80665         15.20947   3.826876  51.38142 117.47225  45.76895 117.09700  45.74018 116.14087  51.35263 116.51646
      13  48.53203 115.85030         15.22117   3.830421  51.35263 116.51646  45.74018 116.14087  45.71146 115.18396  51.32388 115.55990
      13  48.50333 114.89318         15.23288   3.833973  51.32388 115.55990  45.71146 115.18396  45.68280 114.22626  51.29520 114.60256
      13  48.47468 113.93527         15.24461   3.837532  51.29520 114.60256  45.68280 114.22626  45.65419 113.26779  51.26657 113.64443
      13  48.44609 112.97658         15.25634   3.841097  51.26657 113.64443  45.65419 113.26779  45.62564 112.30854  51.23799 112.68553
      13  48.41755 112.01710         15.26808   3.844669  51.23799 112.68553  45.62564 112.30854  45.59714 111.34850  51.20947 111.72584
      13  48.38907 111.05685         15.27983   3.848247  51.20947 111.72584  45.59714 111.34850  45.56870 110.38767  51.18101 110.76537
      13  48.36065 110.09581         15.29158   3.851831  51.18101 110.76537  45.56870 110.38767  45.54032 109.42607  51.15260 109.80411
      13  48.33228 109.13399         15.30335   3.855422  51.15260 109.80411  45.54032 109.42607  45.51199 108.46368  51.12425 108.84207
      13  48.30397 108.17138         15.31513   3.859020  51.12425 108.84207  45.51199 108.46368  45.48372 107.50050  51.09596 107.87925
      13  48.27572 107.20798         15.32691   3.862624  51.09596 107.87925  45.48372 107.50050  45.45551 106.53653  51.06772 106.91564
      13  48.24752 106.24380         15.33871   3.866235  51.06772 106.91564  45.45551 106.53653  45.42735 105.57178  51.03953 105.95124
      13  48.21937 105.27884         15.35051   3.869853  51.03953 105.95124  45.42735 105.57178  45.39925 104.60624  51.01141 104.98605
      13  48.19129 104.31308         15.36232   3.873477  51.01141 104.98605  45.39925 104.60624  45.37120 103.63992  50.98334 104.02008
      13  48.16326 103.34654         15.37415   3.877108  50.98334 104.02008  45.37120 103.63992  45.34322 102.67280  50.95533 103.05332
      13  48.13529 102.37920         15.38598   3.880745  50.95533 103.05332  45.34322 102.67280  45.31529 101.70489  50.92738 102.08577
      13  48.10738 101.41108         15.39782   3.884389  50.92738 102.08577  45.31529 101.70489  45.28741 100.73620  50.89948 101.11743
      13  48.07952 100.44217         15.40967   3.888040  50.89948 101.11743  45.28741 100.73620  45.25960  99.76671  50.87164 100.14830
      13  48.05173  99.47246         15.42152   3.891697  50.87164 100.14830  45.25960  99.76671  45.23184  98.79643  50.84386  99.17838
      13  48.02399  98.50196         15.43339   3.895361  50.84386  99.17838  45.23184  98.79643  45.20414  97.82536  50.81614  98.20767
      13  47.99630  97.53068         15.44527   3.899032  50.81614  98.20767  45.20414  97.82536  45.17650  96.85349  50.78847  97.23616
      13  47.96868  96.55859         15.45715   3.902709  50.78847  97.23616  45.17650  96.85349  45.14892  95.88083  50.76087  96.26386
      13  47.94112  95.58572         15.46905   3.906393  50.76087  96.26386  45.14892  95.88083  45.12140  94.90738  50.73332  95.29077
      13  47.91361  94.61205         15.48095   3.910084  50.73332  95.29077  45.12140  94.90738  45.09393  93.93313  50.70583  94.31688
      13  47.88616  93.63758         15.49286   3.913781  50.70583  94.31688  45.09393  93.93313  45.06653  92.95808  50.67840  93.34220
      13  47.85877  92.66232         15.50479   3.917486  50.67840  93.34220  45.06653  92.95808  45.03918  91.98224  50.65103  92.36672
      13  47.83144  91.68626         15.51672   3.921197  50.65103  92.36672  45.03918  91.98224  45.01189  91.00560  50.62371  91.39045
      13  47.80417  90.70940         15.52866   3.924915  50.62371  91.39045  45.01189  91.00560  44.98467  90.02817  50.59646  90.41338
      13  47.77696  89.73175         15.54061   3.928639  50.59646  90.41338  44.98467  90.02817  44.95750  89.04993  50.56927  89.43551
      13  47.74981  88.75330         15.55257   3.932371  50.56927  89.43551  44.95750  89.04993  44.93039  88.07090  50.54213  88.45684
      13  47.72272  87.77405         15.56454   3.936109  50.54213  88.45684  44.93039  88.07090  44.90334  87.09106  50.51506  87.47737
      13  47.69569  86.79399         15.57651   3.939854  50.51506  87.47737  44.90334  87.09106  44.87635  86.11043  50.48805  86.49710
      13  47.66872  85.81314         15.58850   3.943606  50.48805  86.49710  44.87635  86.11043  44.84942  85.12899  50.46109  85.51603
      13  47.64181  84.83149         15.60049   3.947364  50.46109  85.51603  44.84942  85.12899  44.82255  84.14675  50.43420  84.53416
      13  47.61496  83.84903         15.61250   3.951130  50.43420  84.53416  44.82255  84.14675  44.79575  83.16371  50.40736  83.55149
      13  47.58817  82.86577         15.62451   3.954902  50.40736  83.55149  44.79575  83.16371  44.76900  82.17986  50.38059  82.56801
      13  47.56144  81.88171         15.63654   3.958681  50.38059  82.56801  44.76900  82.17986  44.74231  81.19521  50.35388  81.58373
      13  47.53477  80.89684         15.64857   3.962468  50.35388  81.58373  44.74231  81.19521  44.71569  80.20976  50.32723  80.59865
      13  47.50816  79.91117         15.66061   3.966261  50.32723  80.59865  44.71569  80.20976  44.68912  79.22350  50.30064  79.61276
      13  47.48161  78.92470         15.67266   3.970061  50.30064  79.61276  44.68912  79.22350  44.66262  78.23643  50.27411  78.62607
      13  47.45513  77.93741         15.68472   3.973868  50.27411  78.62607  44.66262  78.23643  44.63618  77.24856  50.24765  77.63857
      13  47.42871  76.94932         15.69679   3.977681  50.24765  77.63857  44.63618  77.24856  44.60980  76.25988  50.22124  76.65026
      13  47.40235  75.96043         15.70887   3.981502  50.22124  76.65026  44.60980  76.25988  44.58349  75.27039  50.19490  75.66115
      13  47.37605  74.97072         15.72096   3.985330  50.19490  75.66115  44.58349  75.27039  44.55723  74.28009  50.16862  74.67122
      13  47.34981  73.98021         15.73306   3.989165  50.16862  74.67122  44.55723  74.28009  44.53104  73.28899  50.14240  73.68049
      13  47.32364  72.98888         15.74517   3.993006  50.14240  73.68049  44.53104  73.28899  44.50491  72.29707  50.11624  72.68895
      13  47.29752  71.99675         15.75728   3.996855  50.11624  72.68895  44.50491  72.29707  44.47884  71.30434  50.09015  71.69660
      13  47.27148  71.00380         15.76941   4.000711  50.09015  71.69660  44.47884  71.30434  44.45284  70.31080  50.06412  70.70344
      13  47.24549  70.01004         15.78154   4.004573  50.06412  70.70344  44.45284  70.31080  44.42690  69.31644  50.03815  69.70946
      13  47.21957  69.01547         15.79369   4.008443  50.03815  69.70946  44.42690  69.31644  44.40102  68.32128  50.01224  68.71467
      13  47.19371  68.02009         15.80584   4.012320  50.01224  68.71467  44.40102  68.32128  44.37520  67.32530  49.98640  67.71907
      13  47.16791  67.02389         15.81800   4.016204  49.98640  67.71907  44.37520  67.32530  44.34945  66.32850  49.96062  66.72266
      13  47.14218  66.02688         15.83018   4.020095  49.96062  66.72266  44.34945  66.32850  44.32376  65.33089  49.93491  65.72543
      13  47.11651  65.02905         15.84236   4.023993  49.93491  65.72543  44.32376  65.33089  44.29814  64.33247  49.90926  64.72739
      13  47.09090  64.03041         15.85455   4.027898  49.90926  64.72739  44.29814  64.33247  44.27258  63.33322  49.88367  63.72853
      13  47.06536  63.03095         15.86675   4.031810  49.88367  63.72853  44.27258  63.33322  44.24708  62.33316  49.85815  62.72885
      13  47.03988  62.03067         15.87896   4.035729  49.85815  62.72885  44.24708  62.33316  44.22165  61.33228  49.83269  61.72835
      13  47.01447  61.02957         15.89118   4.039656  49.83269  61.72835  44.22165  61.33228  44.19629  60.33059  49.80730  60.72704
      13  46.98912  60.02766         15.90341   4.043589  49.80730  60.72704  44.19629  60.33059  44.17099  59.32807  49.78197  59.72491
      13  46.96384  59.02492         15.91565   4.047530  49.78197  59.72491  44.17099  59.32807  44.14575  58.32473  49.75671  58.72196
      13  46.93862  58.02137         15.92789   4.051478  49.75671  58.72196  44.14575  58.32473  44.12058  57.32057  49.73151  57.71819
      13  46.91347  57.01699         15.94015   4.055433  49.73151  57.71819  44.12058  57.32057  44.09547  56.31559  49.70637  56.71360
      13  46.88838  56.01180         15.95242   4.059396  49.70637  56.71360  44.09547  56.31559  44.07043  55.30979  49.68130  55.70818
      13  46.86336  55.00578         15.96469   4.063365  49.68130  55.70818  44.07043  55.30979  44.04546  54.30317  49.65630  54.70195
      13  46.83841  53.99894         15.97698   4.067342  49.65630  54.70195  44.04546  54.30317  44.02055  53.29572  49.63137  53.69489
      13  46.81352  52.99127         15.98927   4.071326  49.63137  53.69489  44.02055  53.29572  43.99570  52.28744  49.60649  52.68701
      13  46.78869  51.98278         16.00158   4.075317  49.60649  52.68701  43.99570  52.28744  43.97093  51.27835  49.58169  51.67830
      13  46.76394  50.97346         16.01389   4.079315  49.58169  51.67830  43.97093  51.27835  43.94622  50.26842  49.55695  50.66877
      13  46.73924  49.96332         16.02621   4.083321  49.55695  50.66877  43.94622  50.26842  43.92157  49.25767  49.53228  49.65841
      13  46.71462  48.95235         16.03855   4.087334  49.53228  49.65841  43.92157  49.25767  43.89700  48.24609  49.50767  48.64722
      13  46.69006  47.94056         16.05089   4.091355  49.50767  48.64722  43.89700  48.24609  43.87249  47.23369  49.48314  47.63521
      13  46.66557  46.92794         16.06324   4.095382  49.48314  47.63521  43.87249  47.23369  43.84804  46.22045  49.45867  46.62237
      13  46.64115  45.91448         16.07560   4.099417  49.45867  46.62237  43.84804  46.22045  43.82367  45.20639  49.43426  45.60870
      13  46.61679  44.90020         16.08797   4.103459  49.43426  45.60870  43.82367  45.20639  43.79936  44.19149  49.40992  44.59420
      13  46.59250  43.88509         16.10035   4.107509  49.40992  44.59420  43.79936  44.19149  43.77512  43.17577  49.38566  43.57887
      13  46.56828  42.86915         16.11274   4.111566  49.38566  43.57887  43.77512  43.17577  43.75095  42.15921  49.36145  42.56271
      13  46.54413  41.85237         16.12514   4.115630  49.36145  42.56271  43.75095  42.15921  43.72684  41.14182  49.33732  41.54572
      13  46.52005  40.83477         16.13755   4.119702  49.33732  41.54572  43.72684  41.14182  43.70281  40.12360  49.31326  40.52790
      13  46.49603  39.81633         16.14997   4.123781  49.31326  40.52790  43.70281  40.12360  43.67884  39.10454  49.28926  39.50924
      13  46.47208  38.79705         16.16240   4.127868  49.28926  39.50924  43.67884  39.10454  43.65494  38.08465  49.26533  38.48975
      13  46.44820  37.77694         16.17483   4.131962  49.26533  38.48975  43.65494  38.08465  43.63111  37.06392  49.24147  37.46943
      13  46.42439  36.75600         16.18728   4.136063  49.24147  37.46943  43.63111  37.06392  43.60735  36.04236  49.21768  36.44827
      13  46.40065  35.73422         16.19974   4.140172  49.21768  36.44827  43.60735  36.04236  43.58366  35.01996  49.19396  35.42627
      13  46.37698  34.71161         16.21220   4.144288  49.19396  35.42627  43.58366  35.01996  43.56003  33.99673  49.17031  34.40344
      13  46.35338  33.68815         16.22468   4.148412  49.17031  34.40344  43.56003  33.99673  43.53648  32.97265  49.14673  33.37977
      13  46.32984  32.66386         16.23716   4.152543  49.14673  33.37977  43.53648  32.97265  43.51300  31.94774  49.12321  32.35526
      13  46.30638  31.63873         16.24966   4.156682  49.12321  32.35526  43.51300  31.94774  43.48958  30.92199  49.09977  31.32991
      13  46.28299  30.61276         16.26216   4.160828  49.09977  31.32991  43.48958  30.92199  43.46624  29.89540  49.07640  30.30373
      13  46.25966  29.58595         16.27468   4.164982  49.07640  30.30373  43.46624  29.89540  43.44297  28.86796  49.05310  29.27670
      13  46.23641  28.55830         16.28720   4.169143  49.05310  29.27670  43.44297  28.86796  43.41976  27.83969  49.02986  28.24884
      13  46.21323  27.52981         16.29973   4.173312  49.02986  28.24884  43.41976  27.83969  43.39663  26.81057  49.00670  27.22013
      13  46.19012  26.50048         16.31228   4.177489  49.00670  27.22013  43.39663  26.81057  43.37357  25.78061  48.98361  26.19057
      13  46.16708  25.47030         16.32483   4.181673  48.98361  26.19057  43.37357  25.78061  43.35058  24.74980  48.96059  25.16018
      13  46.14411  24.43928         16.33739   4.185864  48.96059  25.16018  43.35058  24.74980  43.32766  23.71816  48.93764  24.12894
      13  46.12121  23.40741         16.34996   4.190064  48.93764  24.12894  43.32766  23.71816  43.30482  22.68566  48.91477  23.09686
      13  46.09839  22.37470         16.36255   4.194270  48.91477  23.09686  43.30482  22.68566  43.28204  21.65232  48.89196  22.06393
      13  46.07563  21.34114         16.37514   4.198485  48.89196  22.06393  43.28204  21.65232  43.25934  20.61813  48.86923  21.03016
      13  46.05295  20.30674         16.38774   4.202707  48.86923  21.03016  43.25934  20.61813  43.23671  19.58310  48.84657  19.99553
      13  46.03034  19.27148         16.40035   4.206937  48.84657  19.99553  43.23671  19.58310  43.21415  18.54721  48.82398  18.96007
      13  46.00780  18.23538         16.41297   4.211174  48.82398  18.96007  43.21415  18.54721  43.19166  17.51048  48.80146  17.92375
      13  45.98533  17.19843         16.42560   4.215419  48.80146  17.92375  43.19166  17.51048  43.16925  16.47290  48.77901  16.88658
      13  45.96294  16.16064         16.43824   4.219672  48.77901  16.88658  43.16925  16.47290  43.14691  15.43447  48.75664  15.84857
      13  45.94062  15.12199         16.45089   4.223933  48.75664  15.84857  43.14691  15.43447  43.12464  14.39518  48.73434  14.80970
      13  45.91837  14.08249         16.46355   4.228201  48.73434  14.80970  43.12464  14.39518  43.10244  13.35505  48.71212  13.76998
      13  45.89620  13.04213         16.47622   4.232477  48.71212  13.76998  43.10244  13.35505  43.08032  12.31406  48.68996  12.72941
      13  45.87410  12.00093         16.48890   4.236761  48.68996  12.72941  43.08032  12.31406  43.05827  11.27222  48.66789  11.68799
      13  45.85207  10.95887         16.50159   4.241052  48.66789  11.68799  43.05827  11.27222  43.03630  10.22952  48.64588  10.64572
      13  45.83012   9.91596         16.51428   4.245352  48.64588  10.64572  43.03630  10.22952  43.01440   9.18597  48.62395   9.60259
      13  45.80824   8.87219         16.52699   4.249659  48.62395   9.60259  43.01440   9.18597  42.99257   8.14157  48.60209   8.55860
      13  45.78644   7.82757         16.53971   4.253974  48.60209   8.55860  42.99257   8.14157  42.97082   7.09630  48.58031   7.51376
      13  45.76471   6.78209         16.55244   4.258296  48.58031   7.51376  42.97082   7.09630  42.94914   6.05018  48.55860   6.46807
      13  45.74305   5.73575         16.56518   4.262627  48.55860   6.46807  42.94914   6.05018  42.92754   5.00321  48.53697   5.42151
      13  45.72147   4.68855         16.57792   4.266965  48.53697   5.42151  42.92754   5.00321  42.90601   3.95537  48.51541   4.37410
      13  45.69997   3.64050         16.59068   4.271311  48.51541   4.37410  42.90601   3.95537  42.88456   2.90667  48.49392   3.32583
      13  45.67854   2.59159         16.60345   4.275666  48.49392   3.32583  42.88456   2.90667  42.86319   1.85712  48.47252   2.27671
      13  45.65718   1.54182         16.61622   4.280028  48.47252   2.27671  42.86319   1.85712  42.84189   0.80670  48.45118   1.22672
      13  45.63590   0.49118         16.62901   4.284398  48.45118   1.22672  42.84189   0.80670  42.82066  -0.24458  48.42993   0.17587
      13  45.61470  -0.56031         16.64181   4.288775  48.42993   0.17587  42.82066  -0.24458  42.79951  -1.29672  48.40874  -0.87584
      12  32.09883 126.98638         16.31228   4.027111  34.92453 127.65808  29.31340 127.26324  29.27316 126.31448  34.88426 126.70971
      12  32.05860 126.03743         16.32483   4.030989  34.88426 126.70971  29.27316 126.31448  29.23298 125.36495  34.84405 125.76056
      12  32.01842 125.08770         16.33739   4.034874  34.84405 125.76056  29.23298 125.36495  29.19284 124.41465  34.80388 124.81063
      12  31.97830 124.13720         16.34996   4.038767  34.80388 124.81063  29.19284 124.41465  29.15275 123.46356  34.76377 123.85993
      12  31.93822 123.18592         16.36255   4.042667  34.76377 123.85993  29.15275 123.46356  29.11271 122.51170  34.72370 122.90845
      12  31.89819 122.23386         16.37514   4.046575  34.72370 122.90845  29.11271 122.51170  29.07272 121.55906  34.68369 121.95620
      12  31.85822 121.28102         16.38774   4.050489  34.68369 121.95620  29.07272 121.55906  29.03279 120.60565  34.64372 121.00316
      12  31.81829 120.32741         16.40035   4.054411  34.64372 121.00316  29.03279 120.60565  28.99290 119.65145  34.60381 120.04935
      12  31.77842 119.37301         16.41297   4.058341  34.60381 120.04935  28.99290 119.65145  28.95307 118.69647  34.56395 119.09476
      12  31.73860 118.41784         16.42560   4.062277  34.56395 119.09476  28.95307 118.69647  28.91328 117.74071  34.52414 118.13939
      12  31.69883 117.46188         16.43824   4.066222  34.52414 118.13939  28.91328 117.74071  28.87355 116.78418  34.48438 117.18323
      12  31.65911 116.50515         16.45089   4.070173  34.48438 117.18323  28.87355 116.78418  28.83387 115.82685  34.44467 116.22630
      12  31.61944 115.54763         16.46355   4.074132  34.44467 116.22630  28.83387 115.82685  28.79425 114.86875  34.40502 115.26858
      12  31.57983 114.58933         16.47622   4.078098  34.40502 115.26858  28.79425 114.86875  28.75467 113.90986  34.36541 114.31009
      12  31.54026 113.63024         16.48890   4.082072  34.36541 114.31009  28.75467 113.90986  28.71515 112.95019  34.32586 113.35080
      12  31.50075 112.67037         16.50159   4.086053  34.32586 113.35080  28.71515 112.95019  28.67568 111.98973  34.28636 112.39074
      12  31.46129 111.70972         16.51428   4.090042  34.28636 112.39074  28.67568 111.98973  28.63626 111.02849  34.24692 111.42989
      12  31.42189 110.74828         16.52699   4.094038  34.24692 111.42989  28.63626 111.02849  28.59689 110.06646  34.20753 110.46825
      12  31.38254 109.78605         16.53971   4.098042  34.20753 110.46825  28.59689 110.06646  28.55758 109.10365  34.16818 109.50583
      12  31.34324 108.82304         16.55244   4.102053  34.16818 109.50583  28.55758 109.10365  28.51832 108.14005  34.12890 108.54262
      12  31.30399 107.85924         16.56518   4.106072  34.12890 108.54262  28.51832 108.14005  28.47912 107.17566  34.08966 107.57862
      12  31.26480 106.89465         16.57792   4.110098  34.08966 107.57862  28.47912 107.17566  28.43996 106.21048  34.05048 106.61384
      12  31.22566 105.92928         16.59068   4.114132  34.05048 106.61384  28.43996 106.21048  28.40086 105.24451  34.01135 105.64826
      12  31.18657 104.96311         16.60345   4.118173  34.01135 105.64826  28.40086 105.24451  28.36182 104.27775  33.97228 104.68190
      12  31.14754 103.99615         16.61622   4.122222  33.97228 104.68190  28.36182 104.27775  28.32283 103.31020  33.93326 103.71475
      12  31.10856 103.02841         16.62901   4.126278  33.93326 103.71475  28.32283 103.31020  28.28389 102.34186  33.89429 102.74680
      12  31.06963 102.05987         16.64181   4.130342  33.89429 102.74680  28.28389 102.34186  28.24501 101.37272  33.85538 101.77807
      12  31.03076 101.09054         16.65461   4.134413  33.85538 101.77807  28.24501 101.37272  28.20618 100.40280  33.81653 100.80854
      12  30.99195 100.12041         16.66743   4.138493  33.81653 100.80854  28.20618 100.40280  28.16740  99.43208  33.77772  99.83822
      12  30.95319  99.14950         16.68026   4.142579  33.77772  99.83822  28.16740  99.43208  28.12869  98.46056  33.73898  98.86710
      12  30.91448  98.17778         16.69309   4.146674  33.73898  98.86710  28.12869  98.46056  28.09002  97.48825  33.70028  97.89520
      12  30.87583  97.20528         16.70594   4.150776  33.70028  97.89520  28.09002  97.48825  28.05141  96.51515  33.66164  96.92249
      12  30.83723  96.23198         16.71879   4.154886  33.66164  96.92249  28.05141  96.51515  28.01286  95.54125  33.62306  95.94899
      12  30.79869  95.25788         16.73166   4.159003  33.62306  95.94899  28.01286  95.54125  27.97436  94.56655  33.58453  94.97470
      12  30.76021  94.28298         16.74453   4.163128  33.58453  94.97470  27.97436  94.56655  27.93592  93.59105  33.54606  93.99961
      12  30.72178  93.30729         16.75742   4.167261  33.54606  93.99961  27.93592  93.59105  27.89753  92.61476  33.50765  93.02372
      12  30.68341  92.33080         16.77031   4.171402  33.50765  93.02372  27.89753  92.61476  27.85920  91.63766  33.46929  92.04703
      12  30.64509  91.35351         16.78322   4.175550  33.46929  92.04703  27.85920  91.63766  27.82093  90.65977  33.43098  91.06954
      12  30.60683  90.37542         16.79613   4.179706  33.43098  91.06954  27.82093  90.65977  27.78271  89.68107  33.39273  90.09126
      12  30.56862  89.39652         16.80906   4.183870  33.39273  90.09126  27.78271  89.68107  27.74455  88.70158  33.35454  89.11217
      12  30.53047  88.41683         16.82199   4.188042  33.35454  89.11217  27.74455  88.70158  27.70644  87.72128  33.31641  88.13228
      12  30.49238  87.43634         16.83494   4.192221  33.31641  88.13228  27.70644  87.72128  27.66839  86.74018  33.27833  87.15159
      12  30.45435  86.45504         16.84789   4.196408  33.27833  87.15159  27.66839  86.74018  27.63040  85.75828  33.24031  86.17010
      12  30.41637  85.47294         16.86086   4.200603  33.24031  86.17010  27.63040  85.75828  27.59247  84.77557  33.20234  85.18780
      12  30.37845  84.49004         16.87383   4.204806  33.20234  85.18780  27.59247  84.77557  27.55459  83.79206  33.16444  84.20470
      12  30.34059  83.50633         16.88682   4.209017  33.16444  84.20470  27.55459  83.79206  27.51678  82.80774  33.12659  83.22080
      12  30.30278  82.52182         16.89981   4.213235  33.12659  83.22080  27.51678  82.80774  27.47901  81.82262  33.08880  82.23609
      12  30.26504  81.53650         16.91282   4.217462  33.08880  82.23609  27.47901  81.82262  27.44131  80.83669  33.05106  81.25057
      12  30.22735  80.55037         16.92583   4.221696  33.05106  81.25057  27.44131  80.83669  27.40367  79.84995  33.01339  80.26425
      12  30.18972  79.56344         16.93886   4.225938  33.01339  80.26425  27.40367  79.84995  27.36608  78.86241  32.97577  79.27712
      12  30.15214  78.57570         16.95189   4.230189  32.97577  79.27712  27.36608  78.86241  27.32855  77.87405  32.93821  78.28918
      12  30.11463  77.58715         16.96494   4.234447  32.93821  78.28918  27.32855  77.87405  27.29108  76.88489  32.90071  77.30044
      12  30.07718  76.59779         16.97799   4.238713  32.90071  77.30044  27.29108  76.88489  27.25367  75.89492  32.86327  76.31088
      12  30.03978  75.60762         16.99106   4.242987  32.86327  76.31088  27.25367  75.89492  27.21632  74.90413  32.82589  75.32052
      12  30.00244  74.61664         17.00413   4.247268  32.82589  75.32052  27.21632  74.90413  27.17903  73.91254  32.78857  74.32934
      12  29.96516  73.62484         17.01722   4.251558  32.78857  74.32934  27.17903  73.91254  27.14180  72.92013  32.75130  73.33735
      12  29.92794  72.63224         17.03031   4.255856  32.75130  73.33735  27.14180  72.92013  27.10462  71.92691  32.71410  72.34455
      12  29.89079  71.63882         17.04342   4.260162  32.71410  72.34455  27.10462  71.92691  27.06751  70.93287  32.67695  71.35094
      12  29.85369  70.64459         17.05653   4.264476  32.67695  71.35094  27.06751  70.93287  27.03046  69.93802  32.63987  70.35651
      12  29.81665  69.64955         17.06966   4.268798  32.63987  70.35651  27.03046  69.93802  26.99346  68.94236  32.60284  69.36127
      12  29.77967  68.65369         17.08280   4.273128  32.60284  69.36127  26.99346  68.94236  26.95653  67.94588  32.56588  68.36521
      12  29.74275  67.65701         17.09594   4.277466  32.56588  68.36521  26.95653  67.94588  26.91966  66.94858  32.52897  67.36834
      12  29.70589  66.65952         17.10910   4.281813  32.52897  67.36834  26.91966  66.94858  26.88285  65.95047  32.49213  66.37065
      12  29.66909  65.66121         17.12226   4.286167  32.49213  66.37065  26.88285  65.95047  26.84610  64.95153  32.45535  65.37215
      12  29.63236  64.66208         17.13544   4.290529  32.45535  65.37215  26.84610  64.95153  26.80941  63.95178  32.41863  64.37283
      12  29.59568  63.66213         17.14863   4.294900  32.41863  64.37283  26.80941  63.95178  26.77278  62.95121  32.38197  63.37268
      12  29.55907  62.66137         17.16182   4.299279  32.38197  63.37268  26.77278  62.95121  26.73621  61.94982  32.34537  62.37172
      12  29.52252  61.65978         17.17503   4.303665  32.34537  62.37172  26.73621  61.94982  26.69970  60.94761  32.30883  61.36994
      12  29.48602  60.65738         17.18824   4.308060  32.30883  61.36994  26.69970  60.94761  26.66326  59.94458  32.27235  60.36734
      12  29.44960  59.65415         17.20147   4.312464  32.27235  60.36734  26.66326  59.94458  26.62688  58.94073  32.23594  59.36392
      12  29.41323  58.65010         17.21471   4.316875  32.23594  59.36392  26.62688  58.94073  26.59056  57.93605  32.19958  58.35967
      12  29.37692  57.64522         17.22796   4.321294  32.19958  58.35967  26.59056  57.93605  26.55430  56.93055  32.16329  57.35460
      12  29.34068  56.63953         17.24121   4.325722  32.16329  57.35460  26.55430  56.93055  26.51811  55.92422  32.12707  56.34871
      12  29.30450  55.63301         17.25448   4.330158  32.12707  56.34871  26.51811  55.92422  26.48197  54.91707  32.09090  55.34200
      12  29.26838  54.62566         17.26776   4.334603  32.09090  55.34200  26.48197  54.91707  26.44591  53.90910  32.05480  54.33446
      12  29.23233  53.61749         17.28105   4.339055  32.05480  54.33446  26.44591  53.90910  26.40990  52.90029  32.01876  53.32609
      12  29.19634  52.60849         17.29434   4.343516  32.01876  53.32609  26.40990  52.90029  26.37396  51.89066  31.98278  52.31690
      12  29.16041  51.59867         17.30765   4.347985  31.98278  52.31690  26.37396  51.89066  26.33808  50.88021  31.94687  51.30688
      12  29.12455  50.58802         17.32097   4.352463  31.94687  51.30688  26.33808  50.88021  26.30226  49.86892  31.91102  50.29603
      12  29.08875  49.57654         17.33430   4.356949  31.91102  50.29603  26.30226  49.86892  26.26651  48.85681  31.87524  49.28436
      12  29.05301  48.56423         17.34764   4.361443  31.87524  49.28436  26.26651  48.85681  26.23082  47.84386  31.83951  48.27185
      12  29.01734  47.55108         17.36099   4.365945  31.83951  48.27185  26.23082  47.84386  26.19520  46.83009  31.80386  47.25852
      12  28.98173  46.53711         17.37435   4.370456  31.80386  47.25852  26.19520  46.83009  26.15964  45.81548  31.76826  46.24435
      12  28.94618  45.52231         17.38772   4.374975  31.76826  46.24435  26.15964  45.81548  26.12414  44.80004  31.73274  45.22935
      12  28.91070  44.50668         17.40110   4.379503  31.73274  45.22935  26.12414  44.80004  26.08871  43.78377  31.69727  44.21353
      12  28.87529  43.49021         17.41449   4.384039  31.69727  44.21353  26.08871  43.78377  26.05335  42.76666  31.66187  43.19686
      12  28.83994  42.47291         17.42789   4.388584  31.66187  43.19686  26.05335  42.76666  26.01805  41.74872  31.62654  42.17937
      12  28.80466  41.45477         17.44130   4.393137  31.62654  42.17937  26.01805  41.74872  25.98281  40.72994  31.59127  41.16104
      12  28.76944  40.43580         17.45472   4.397698  31.59127  41.16104  25.98281  40.72994  25.94765  39.71033  31.55607  40.14188
      12  28.73428  39.41600         17.46816   4.402268  31.55607  40.14188  25.94765  39.71033  25.91254  38.68988  31.52093  39.12188
      12  28.69920  38.39536         17.48160   4.406846  31.52093  39.12188  25.91254  38.68988  25.87751  37.66860  31.48586  38.10104
      12  28.66418  37.37388         17.49505   4.411433  31.48586  38.10104  25.87751  37.66860  25.84253  36.64648  31.45085  37.07937
      12  28.62922  36.35156         17.50851   4.416029  31.45085  37.07937  25.84253  36.64648  25.80763  35.62352  31.41591  36.05685
      12  28.59433  35.32840         17.52199   4.420633  31.41591  36.05685  25.80763  35.62352  25.77279  34.59971  31.38104  35.03350
      12  28.55951  34.30441         17.53547   4.425245  31.38104  35.03350  25.77279  34.59971  25.73802  33.57507  31.34623  34.00931
      12  28.52475  33.27957         17.54896   4.429866  31.34623  34.00931  25.73802  33.57507  25.70332  32.54959  31.31149  32.98429
      12  28.49007  32.25390         17.56247   4.434496  31.31149  32.98429  25.70332  32.54959  25.66868  31.52327  31.27682  31.95842
      12  28.45545  31.22738         17.57598   4.439134  31.27682  31.95842  25.66868  31.52327  25.63411  30.49610  31.24222  30.93170
      12  28.42089  30.20002         17.58951   4.443781  31.24222  30.93170  25.63411  30.49610  25.59961  29.46809  31.20768  29.90415
      12  28.38641  29.17182         17.60304   4.448436  31.20768  29.90415  25.59961  29.46809  25.56517  28.43924  31.17321  28.87575
      12  28.35199  28.14277         17.61659   4.453101  31.17321  28.87575  25.56517  28.43924  25.53081  27.40954  31.13881  27.84651
      12  28.31764  27.11288         17.63015   4.457773  31.13881  27.84651  25.53081  27.40954  25.49651  26.37900  31.10447  26.81643
      12  28.28335  26.08214         17.64371   4.462455  31.10447  26.81643  25.49651  26.37900  25.46228  25.34761  31.07021  25.78550
      12  28.24914  25.05056         17.65729   4.467145  31.07021  25.78550  25.46228  25.34761  25.42811  24.31538  31.03601  24.75372
      12  28.21499  24.01813         17.67088   4.471844  31.03601  24.75372  25.42811  24.31538  25.39402  23.28230  31.00188  23.72110
      12  28.18092  22.98486         17.68448   4.476551  31.00188  23.72110  25.39402  23.28230  25.36000  22.24836  30.96782  22.68763
      12  28.14691  21.95073         17.69809   4.481268  30.96782  22.68763  25.36000  22.24836  25.32604  21.21358  30.93383  21.65332
      12  28.11297  20.91576         17.71170   4.485993  30.93383  21.65332  25.32604  21.21358  25.29216  20.17796  30.89991  20.61815
      12  28.07910  19.87994         17.72533   4.490726  30.89991  20.61815  25.29216  20.17796  25.25834  19.14148  30.86605  19.58213
      12  28.04530  18.84326         17.73897   4.495469  30.86605  19.58213  25.25834  19.14148  25.22459  18.10415  30.83227  18.54527
      12  28.01157  17.80574         17.75263   4.500220  30.83227  18.54527  25.22459  18.10415  25.19092  17.06596  30.79856  17.50755
      12  27.97791  16.76736         17.76629   4.504980  30.79856  17.50755  25.19092  17.06596  25.15731  16.02693  30.76491  16.46898
      12  27.94432  15.72813         17.77996   4.509749  30.76491  16.46898  25.15731  16.02693  25.12377  14.98704  30.73134  15.42956
      12  27.91080  14.68805         17.79364   4.514527  30.73134  15.42956  25.12377  14.98704  25.09031  13.94630  30.69784  14.38929
      12  27.87735  13.64712         17.80733   4.519314  30.69784  14.38929  25.09031  13.94630  25.05691  12.90470  30.66441  13.34816
      12  27.84398  12.60533         17.82104   4.524110  30.66441  13.34816  25.05691  12.90470  25.02359  11.86225  30.63104  12.30618
      12  27.81067  11.56268         17.83475   4.528914  30.63104  12.30618  25.02359  11.86225  24.99034  10.81894  30.59775  11.26334
      12  27.77743  10.51918         17.84847   4.533727  30.59775  11.26334  24.99034  10.81894  24.95715   9.77477  30.56453  10.21964
      12  27.74427   9.47482         17.86221   4.538550  30.56453  10.21964  24.95715   9.77477  24.92404   8.72975  30.53139   9.17509
      12  27.71117   8.42960         17.87595   4.543381  30.53139   9.17509  24.92404   8.72975  24.89101   7.68387  30.49831   8.12968
      12  27.67815   7.38353         17.88971   4.548221  30.49831   8.12968  24.89101   7.68387  24.85804   6.63713  30.46531   7.08341
      12  27.64520   6.33660         17.90348   4.553070  30.46531   7.08341  24.85804   6.63713  24.82514   5.58952  30.43237   6.03629
      12  27.61233   5.28880         17.91725   4.557928  30.43237   6.03629  24.82514   5.58952  24.79232   4.54106  30.39951   4.98830
      12  27.57952   4.24015         17.93104   4.562795  30.39951   4.98830  24.79232   4.54106  24.75957   3.49174  30.36673   3.93946
      12  27.54679   3.19063         17.94484   4.567671  30.36673   3.93946  24.75957   3.49174  24.72690   2.44155  30.33401   2.88975
      12  27.51413   2.14025         17.95865   4.572556  30.33401   2.88975  24.72690   2.44155  24.69429   1.39050  30.30137   1.83918
      12  27.48154   1.08901         17.97247   4.577451  30.30137   1.83918  24.69429   1.39050  24.66176   0.33859  30.26880   0.78774
      11  12.39948 127.86160         17.73897   4.302467  15.22987 128.54690   9.62070 128.12512   9.56912 127.17607  15.17826 127.59828
      11  12.34790 126.91237         17.75263   4.306809  15.17826 127.59828   9.56912 127.17607   9.51758 126.22624  15.12668 126.64888
      11  12.29636 125.96237         17.76629   4.311158  15.12668 126.64888   9.51758 126.22624   9.46607 125.27564  15.07514 125.69870
      11  12.24485 125.01159         17.77996   4.315517  15.07514 125.69870   9.46607 125.27564   9.41459 124.32426  15.02363 124.74774
      11  12.19338 124.06003         17.79364   4.319883  15.02363 124.74774   9.41459 124.32426   9.36316 123.37210  14.97216 123.79601
      11  12.14194 123.10770         17.80733   4.324258  14.97216 123.79601   9.36316 123.37210   9.31175 122.41915  14.92073 122.84350
      11  12.09054 122.15458         17.82104   4.328641  14.92073 122.84350   9.31175 122.41915   9.26039 121.46543  14.86933 121.89020
      11  12.03918 121.20068         17.83475   4.333033  14.86933 121.89020   9.26039 121.46543   9.20906 120.51093  14.81796 120.93613
      11  11.98785 120.24600         17.84847   4.337433  14.81796 120.93613   9.20906 120.51093   9.15777 119.55564  14.76664 119.98128
      11  11.93656 119.29054         17.86221   4.341842  14.76664 119.98128   9.15777 119.55564   9.10651 118.59957  14.71535 119.02564
      11  11.88530 118.33429         17.87595   4.346259  14.71535 119.02564   9.10651 118.59957   9.05529 117.64272  14.66410 118.06922
      11  11.83408 117.37726         17.88971   4.350684  14.66410 118.06922   9.05529 117.64272   9.00410 116.68508  14.61288 117.11202
      11  11.78290 116.41945         17.90348   4.355118  14.61288 117.11202   9.00410 116.68508   8.95296 115.72666  14.56170 116.15403
      11  11.73176 115.46085         17.91725   4.359560  14.56170 116.15403   8.95296 115.72666   8.90185 114.76745  14.51056 115.19526
      11  11.68065 114.50147         17.93104   4.364011  14.51056 115.19526   8.90185 114.76745   8.85078 113.80746  14.45945 114.23570
      11  11.62958 113.54130         17.94484   4.368471  14.45945 114.23570   8.85078 113.80746   8.79974 112.84668  14.40838 113.27535
      11  11.57855 112.58035         17.95865   4.372939  14.40838 113.27535   8.79974 112.84668   8.74874 111.88511  14.35735 112.31422
      11  11.52755 111.61860         17.97247   4.377415  14.35735 112.31422   8.74874 111.88511   8.69778 110.92275  14.30636 111.35231
      11  11.47659 110.65607         17.98630   4.381901  14.30636 111.35231   8.69778 110.92275   8.64686 109.95961  14.25540 110.38960
      11  11.42567 109.69275         18.00014   4.386394  14.25540 110.38960   8.64686 109.95961   8.59598 108.99567  14.20449 109.42611
      11  11.37479 108.72864         18.01399   4.390897  14.20449 109.42611   8.59598 108.99567   8.54513 108.03095  14.15361 108.46182
      11  11.32395 107.76374         18.02785   4.395407  14.15361 108.46182   8.54513 108.03095   8.49432 107.06543  14.10276 107.49675
      11  11.27314 106.79805         18.04173   4.399927  14.10276 107.49675   8.49432 107.06543   8.44356 106.09912  14.05196 106.53088
      11  11.22237 105.83157         18.05561   4.404455  14.05196 106.53088   8.44356 106.09912   8.39283 105.13202  14.00120 105.56423
      11  11.17165 104.86429         18.06951   4.408992  14.00120 105.56423   8.39283 105.13202   8.34213 104.16413  13.95047 104.59678
      11  11.12096 103.89623         18.08341   4.413538  13.95047 104.59678   8.34213 104.16413   8.29148 103.19544  13.89978 103.62853
      11  11.07031 102.92737         18.09733   4.418092  13.89978 103.62853   8.29148 103.19544   8.24087 102.22596  13.84913 102.65950
      11  11.01969 101.95771         18.11125   4.422655  13.84913 102.65950   8.24087 102.22596   8.19029 101.25568  13.79853 101.68967
      11  10.96912 100.98726         18.12519   4.427227  13.79853 101.68967   8.19029 101.25568   8.13976 100.28461  13.74796 100.71904
      11  10.91859 100.01601         18.13914   4.431807  13.74796 100.71904   8.13976 100.28461   8.08926  99.31274  13.69742  99.74762
      11  10.86810  99.04397         18.15310   4.436396  13.69742  99.74762   8.08926  99.31274   8.03880  98.34008  13.64693  98.77541
      11  10.81764  98.07113         18.16706   4.440994  13.64693  98.77541   8.03880  98.34008   7.98839  97.36661  13.59648  97.80239
      11  10.76723  97.09749         18.18104   4.445601  13.59648  97.80239   7.98839  97.36661   7.93801  96.39235  13.54607  96.82858
      11  10.71685  96.12305         18.19504   4.450216  13.54607  96.82858   7.93801  96.39235   7.88767  95.41729  13.49570  95.85397
      11  10.66652  95.14782         18.20904   4.454841  13.49570  95.85397   7.88767  95.41729   7.83738  94.44143  13.44537  94.87856
      11  10.61623  94.17178         18.22305   4.459474  13.44537  94.87856   7.83738  94.44143   7.78712  93.46476  13.39508  93.90236
      11  10.56597  93.19495         18.23707   4.464116  13.39508  93.90236   7.78712  93.46476   7.73691  92.48730  13.34482  92.92535
      11  10.51576  92.21731         18.25111   4.468767  13.34482  92.92535   7.73691  92.48730   7.68673  91.50903  13.29461  91.94754
      11  10.46559  91.23887         18.26515   4.473426  13.29461  91.94754   7.68673  91.50903   7.63660  90.52996  13.24444  90.96892
      11  10.41546  90.25963         18.27921   4.478095  13.24444  90.96892   7.63660  90.52996   7.58651  89.55009  13.19432  89.98951
      11  10.36537  89.27958         18.29327   4.482773  13.19432  89.98951   7.58651  89.55009   7.53645  88.56942  13.14423  89.00929
      11  10.31532  88.29873         18.30735   4.487459  13.14423  89.00929   7.53645  88.56942   7.48644  87.58794  13.09418  88.02827
      11  10.26531  87.31708         18.32144   4.492155  13.09418  88.02827   7.48644  87.58794   7.43647  86.60565  13.04418  87.04644
      11  10.21534  86.33462         18.33554   4.496859  13.04418  87.04644   7.43647  86.60565   7.38655  85.62256  12.99421  86.06381
      11  10.16542  85.35136         18.34965   4.501572  12.99421  86.06381   7.38655  85.62256   7.33666  84.63866  12.94429  85.08037
      11  10.11554  84.36728         18.36377   4.506295  12.94429  85.08037   7.33666  84.63866   7.28682  83.65395  12.89441  84.09613
      11  10.06569  83.38240         18.37790   4.511026  12.89441  84.09613   7.28682  83.65395   7.23702  82.66843  12.84457  83.11108
      11  10.01590  82.39672         18.39204   4.515766  12.84457  83.11108   7.23702  82.66843   7.18726  81.68211  12.79478  82.12522
      11   9.96614  81.41022         18.40619   4.520516  12.79478  82.12522   7.18726  81.68211   7.13754  80.69498  12.74502  81.13855
      11   9.91642  80.42291         18.42036   4.525274  12.74502  81.13855   7.13754  80.69498   7.08787  79.70703  12.69531  80.15107
      11   9.86675  79.43480         18.43453   4.530042  12.69531  80.15107   7.08787  79.70703   7.03823  78.71828  12.64564  79.16278
      11   9.81712  78.44587         18.44872   4.534819  12.64564  79.16278   7.03823  78.71828   6.98864  77.72871  12.59602  78.17368
      11   9.76754  77.45613         18.46292   4.539604  12.59602  78.17368   6.98864  77.72871   6.93910  76.73833  12.54643  77.18377
      11   9.71800  76.46558         18.47712   4.544399  12.54643  77.18377   6.93910  76.73833   6.88960  75.74714  12.49689  76.19305
      11   9.66850  75.47421         18.49134   4.549203  12.49689  76.19305   6.88960  75.74714   6.84014  74.75513  12.44740  75.20151
      11   9.61904  74.48203         18.50557   4.554016  12.44740  75.20151   6.84014  74.75513   6.79072  73.76231  12.39794  74.20916
      11   9.56963  73.48904         18.51981   4.558839  12.39794  74.20916   6.79072  73.76231   6.74135  72.76867  12.34853  73.21600
      11   9.52026  72.49523         18.53406   4.563670  12.34853  73.21600   6.74135  72.76867   6.69202  71.77422  12.29917  72.22202
      11   9.47093  71.50061         18.54833   4.568511  12.29917  72.22202   6.69202  71.77422   6.64274  70.77895  12.24985  71.22722
      11   9.42165  70.50517         18.56260   4.573361  12.24985  71.22722   6.64274  70.77895   6.59350  69.78286  12.20057  70.23161
      11   9.37241  69.50891         18.57688   4.578220  12.20057  70.23161   6.59350  69.78286   6.54430  68.78596  12.15133  69.23518
      11   9.32322  68.51183         18.59118   4.583088  12.15133  69.23518   6.54430  68.78596   6.49515  67.78823  12.10214  68.23793
      11   9.27407  67.51394         18.60549   4.587966  12.10214  68.23793   6.49515  67.78823   6.44604  66.78969  12.05300  67.23987
      11   9.22497  66.51522         18.61980   4.592853  12.05300  67.23987   6.44604  66.78969   6.39698  65.79032  12.00390  66.24098
      11   9.17591  65.51569         18.63413   4.597749  12.00390  66.24098   6.39698  65.79032   6.34796  64.79014  11.95484  65.24128
      11   9.12690  64.51533         18.64847   4.602655  11.95484  65.24128   6.34796  64.79014   6.29899  63.78913  11.90583  64.24075
      11   9.07793  63.51416         18.66282   4.607569  11.90583  64.24075   6.29899  63.78913   6.25006  62.78730  11.85687  63.23940
      11   9.02900  62.51216         18.67718   4.612494  11.85687  63.23940   6.25006  62.78730   6.20118  61.78465  11.80795  62.23723
      11   8.98013  61.50933         18.69156   4.617427  11.80795  62.23723   6.20118  61.78465   6.15235  60.78118  11.75907  61.23424
      11   8.93129  60.50569         18.70594   4.622370  11.75907  61.23424   6.15235  60.78118   6.10356  59.77688  11.71024  60.23043
      11   8.88251  59.50122         18.72033   4.627323  11.71024  60.23043   6.10356  59.77688   6.05481  58.77175  11.66146  59.22579
      11   8.83377  58.49592         18.73474   4.632284  11.66146  59.22579   6.05481  58.77175   6.00611  57.76580  11.61272  58.22032
      11   8.78507  57.48980         18.74916   4.637256  11.61272  58.22032   6.00611  57.76580   5.95746  56.75902  11.56403  57.21403
      11   8.73642  56.48285         18.76359   4.642236  11.56403  57.21403   5.95746  56.75902   5.90886  55.75141  11.51538  56.20691
      11   8.68782  55.47507         18.77802   4.647226  11.51538  56.20691   5.90886  55.75141   5.86030  54.74298  11.46679  55.19896
      11   8.63927  54.46647         18.79247   4.652226  11.46679  55.19896   5.86030  54.74298   5.81179  53.73372  11.41823  54.19019
      11   8.59076  53.45704         18.80694   4.657235  11.41823  54.19019   5.81179  53.73372   5.76332  52.72362  11.36973  53.18059
      11   8.54230  52.44678         18.82141   4.662254  11.36973  53.18059   5.76332  52.72362   5.71490  51.71270  11.32127  52.17016
      11   8.49388  51.43568         18.83589   4.667282  11.32127  52.17016   5.71490  51.71270   5.66653  50.70095  11.27286  51.15890
      11   8.44551  50.42376         18.85039   4.672320  11.27286  51.15890   5.66653  50.70095   5.61821  49.68836  11.22450  50.14680
      11   8.39719  49.41100         18.86489   4.677367  11.22450  50.14680   5.61821  49.68836   5.56993  48.67494  11.17618  49.13388
      11   8.34892  48.39742         18.87941   4.682424  11.17618  49.13388   5.56993  48.67494   5.52171  47.66069  11.12791  48.12013
      11   8.30070  47.38300         18.89394   4.687490  11.12791  48.12013   5.52171  47.66069   5.47353  46.64561  11.07969  47.10554
      11   8.25252  46.36774         18.90848   4.692566  11.07969  47.10554   5.47353  46.64561   5.42539  45.62969  11.03152  46.09011
      11   8.20439  45.35165         18.92303   4.697652  11.03152  46.09011   5.42539  45.62969   5.37731  44.61293  10.98339  45.07386
      11   8.15631  44.33473         18.93759   4.702747  10.98339  45.07386   5.37731  44.61293   5.32927  43.59534  10.93532  44.05676
      11   8.10828  43.31697         18.95216   4.707853  10.93532  44.05676   5.32927  43.59534   5.28129  42.57691  10.88729  43.03884
      11   8.06030  42.29837         18.96675   4.712967  10.88729  43.03884   5.28129  42.57691   5.23335  41.55765  10.83931  42.02007
      11   8.01236  41.27894         18.98134   4.718092  10.83931  42.02007   5.23335  41.55765   5.18546  40.53755  10.79138  41.00047
      11   7.96448  40.25867         18.99595   4.723226  10.79138  41.00047   5.18546  40.53755   5.13762  39.51660  10.74350  39.98003
      11   7.91664  39.23756         19.01057   4.728370  10.74350  39.98003   5.13762  39.51660   5.08983  38.49482  10.69566  38.95875
      11   7.86885  38.21561         19.02520   4.733523  10.69566  38.95875   5.08983  38.49482   5.04209  37.47220  10.64788  37.93663
      11   7.82112  37.19282         19.03984   4.738687  10.64788  37.93663   5.04209  37.47220   4.99440  36.44873  10.60015  36.91368
      11   7.77343  36.16918         19.05449   4.743860  10.60015  36.91368   4.99440  36.44873   4.94675  35.42443  10.55246  35.88988
      11   7.72579  35.14471         19.06915   4.749043  10.55246  35.88988   4.94675  35.42443   4.89916  34.39928  10.50483  34.86524
      11   7.67820  34.11939         19.08382   4.754236  10.50483  34.86524   4.89916  34.39928   4.85162  33.37329  10.45724  33.83975
      11   7.63066  33.09324         19.09851   4.759438  10.45724  33.83975   4.85162  33.37329   4.80413  32.34645  10.40971  32.81343
      11   7.58318  32.06623         19.11321   4.764651  10.40971  32.81343   4.80413  32.34645   4.75669  31.31877  10.36223  31.78625
      11   7.53574  31.03838         19.12792   4.769873  10.36223  31.78625   4.75669  31.31877   4.70930  30.29024  10.31479  30.75824
      11   7.48835  30.00969         19.14263   4.775106  10.31479  30.75824   4.70930  30.29024   4.66196  29.26087  10.26741  29.72938
      11   7.44102  28.98015         19.15737   4.780348  10.26741  29.72938   4.66196  29.26087   4.61467  28.23065  10.22008  28.69967
      11   7.39373  27.94976         19.17211   4.785600  10.22008  28.69967   4.61467  28.23065   4.56743  27.19958  10.17280  27.66912
      11   7.34650  26.91853         19.18686   4.790862  10.17280  27.66912   4.56743  27.19958   4.52024  26.16767  10.12557  26.63772
      11   7.29932  25.88645         19.20163   4.796134  10.12557  26.63772   4.52024  26.16767   4.47311  25.13490  10.07839  25.60547
      11   7.25219  24.85351         19.21640   4.801416  10.07839  25.60547   4.47311  25.13490   4.42602  24.10129  10.03126  24.57237
      11   7.20511  23.81973         19.23119   4.806708  10.03126  24.57237   4.42602  24.10129   4.37899  23.06682   9.98419  23.53842
      11   7.15808  22.78510         19.24599   4.812010   9.98419  23.53842   4.37899  23.06682   4.33201  22.03150   9.93717  22.50363
      11   7.11110  21.74962         19.26080   4.817322   9.93717  22.50363   4.33201  22.03150   4.28509  20.99533   9.89019  21.46798
      11   7.06418  20.71328         19.27562   4.822644   9.89019  21.46798   4.28509  20.99533   4.23821  19.95831   9.84328  20.43147
      11   7.01731  19.67609         19.29045   4.827977   9.84328  20.43147   4.23821  19.95831   4.19139  18.92043   9.79641  19.39412
      11   6.97049  18.63805         19.30530   4.833319   9.79641  19.39412   4.19139  18.92043   4.14462  17.88170   9.74960  18.35591
      11   6.92373  17.59915         19.32015   4.838671   9.74960  18.35591   4.14462  17.88170   4.09790  16.84212   9.70283  17.31685
      11   6.87701  16.55940         19.33502   4.844034   9.70283  17.31685   4.09790  16.84212   4.05124  15.80168   9.65613  16.27693
      11   6.83036  15.51879         19.34990   4.849406   9.65613  16.27693   4.05124  15.80168   4.00463  14.76038   9.60947  15.23616
      11   6.78375  14.47733         19.36479   4.854789   9.60947  15.23616   4.00463  14.76038   3.95807  13.71822   9.56287  14.19453
      11   6.73720  13.43501         19.37969   4.860182   9.56287  14.19453   3.95807  13.71822   3.91157  12.67521   9.51632  13.15205
      11   6.69070  12.39183         19.39461   4.865585   9.51632  13.15205   3.91157  12.67521   3.86512  11.63133   9.46983  12.10870
      11   6.64425  11.34779         19.40953   4.870999   9.46983  12.10870   3.86512  11.63133   3.81872  10.58660   9.42339  11.06450
      11   6.59786  10.30289         19.42447   4.876422   9.42339  11.06450   3.81872  10.58660   3.77238   9.54101   9.37700  10.01944
      11   6.55153   9.25714         19.43941   4.881856   9.37700  10.01944   3.77238   9.54101   3.72610   8.49455   9.33067   8.97352
      11   6.50524   8.21052         19.45437   4.887301   9.33067   8.97352   3.72610   8.49455   3.67986   7.44724   9.28439   7.92673
      11   6.45902   7.16304         19.46934   4.892755   9.28439   7.92673   3.67986   7.44724   3.63369   6.39906   9.23817   6.87909
      11   6.41284   6.11469         19.48433   4.898220   9.23817   6.87909   3.63369   6.39906   3.58756   5.35002   9.19200   5.83058
      11   6.36672   5.06549         19.49932   4.903695   9.19200   5.83058   3.58756   5.35002   3.54150   4.30011   9.14588   4.78121
      11   6.32066   4.01542         19.51432   4.909180   9.14588   4.78121   3.54150   4.30011   3.49548   3.24934   9.09983   3.73098
      11   6.27465   2.96448         19.52934   4.914676   9.09983   3.73098   3.49548   3.24934   3.44953   2.19770   9.05382   2.67988
      11   6.22870   1.91268         19.54437   4.920182   9.05382   2.67988   3.44953   2.19770   3.40363   1.14520   9.00787   1.62791
      11   6.18280   0.86001         19.55941   4.925699   9.00787   1.62791   3.40363   1.14520   3.35778   0.09183   8.96198   0.57508
