\wavsamp version 5.0 (Thu May  9 10:19:35 PDT 2002)
\processing time 22:08:08 PST 11/20/2003
\character channelID = 3
| order |x_center |y_center |   wavelength   |  angle   |   x0    |   y0    |   x1    |   y1    |   x2    |   y2    |   x3    |   y3    |
| int   |  real   |  real   |    real        |   real   |  real   |  real   |  real   |  real   |  real   |  real   |  real   |  real   |
      20   8.38430   0.00005         18.72780   0.700000  11.39774  -0.53109   5.39818  -0.60440   5.37087   0.53118  11.37042   0.60449
      20   8.35698   1.13610         18.74341   0.700000  11.37042   0.60449   5.37087   0.53118   5.34354   1.66771  11.34309   1.74101
      20   8.32963   2.27310         18.75904   0.700000  11.34309   1.74101   5.34354   1.66771   5.31618   2.80518  11.31573   2.87848
      20   8.30226   3.41104         18.77468   0.700000  11.31573   2.87848   5.31618   2.80518   5.28880   3.94360  11.28835   4.01690
      20   8.27487   4.54994         18.79033   0.700000  11.28835   4.01690   5.28880   3.94360   5.26139   5.08297  11.26095   5.15627
      20   8.24746   5.68978         18.80600   0.700000  11.26095   5.15627   5.26139   5.08297   5.23397   6.22329  11.23352   6.29659
      20   8.22002   6.83058         18.82167   0.700000  11.23352   6.29659   5.23397   6.22329   5.20652   7.36456  11.20607   7.43786
      20   8.19256   7.97232         18.83736   0.700000  11.20607   7.43786   5.20652   7.36456   5.17904   8.50678  11.17860   8.58009
      20   8.16507   9.11502         18.85307   0.700000  11.17860   8.58009   5.17904   8.50678   5.15155   9.64996  11.15110   9.72326
      20   8.13757  10.25867         18.86879   0.700000  11.15110   9.72326   5.15155   9.64996   5.12403  10.79409  11.12358  10.86739
      20   8.11004  11.40328         18.88452   0.700000  11.12358  10.86739   5.12403  10.79409   5.09649  11.93917  11.09604  12.01247
      20   8.08248  12.54884         18.90026   0.700000  11.09604  12.01247   5.09649  11.93917   5.06892  13.08520  11.06848  13.15851
      20   8.05491  13.69535         18.91602   0.700000  11.06848  13.15851   5.06892  13.08520   5.04134  14.23220  11.04089  14.30550
      20   8.02731  14.84282         18.93179   0.700000  11.04089  14.30550   5.04134  14.23220   5.01373  15.38014  11.01328  15.45345
      20   7.99969  15.99125         18.94757   0.700000  11.01328  15.45345   5.01373  15.38014   4.98609  16.52905  10.98565  16.60235
      20   7.97204  17.14063         18.96337   0.700000  10.98565  16.60235   4.98609  16.52905   4.95844  17.67891  10.95799  17.75221
      20   7.94437  18.29097         18.97918   0.700000  10.95799  17.75221   4.95844  17.67891   4.93076  18.82973  10.93031  18.90303
      20   7.91668  19.44227         18.99500   0.700000  10.93031  18.90303   4.93076  18.82973   4.90306  19.98151  10.90261  20.05482
      20   7.88897  20.59453         19.01083   0.700000  10.90261  20.05482   4.90306  19.98151   4.87533  21.13425  10.87488  21.20756
      20   7.86123  21.74776         19.02668   0.700000  10.87488  21.20756   4.87533  21.13425   4.84758  22.28796  10.84713  22.36126
      20   7.83347  22.90194         19.04255   0.700000  10.84713  22.36126   4.84758  22.28796   4.81981  23.44262  10.81936  23.51592
      20   7.80569  24.05709         19.05842   0.700000  10.81936  23.51592   4.81981  23.44262   4.79202  24.59825  10.79157  24.67155
      20   7.77788  25.21319         19.07431   0.700000  10.79157  24.67155   4.79202  24.59825   4.76420  25.75484  10.76375  25.82814
      20   7.75005  26.37027         19.09021   0.700000  10.76375  25.82814   4.76420  25.75484   4.73636  26.91239  10.73591  26.98569
      20   7.72220  27.52830         19.10613   0.700000  10.73591  26.98569   4.73636  26.91239   4.70849  28.07091  10.70804  28.14421
      20   7.69432  28.68731         19.12206   0.700000  10.70804  28.14421   4.70849  28.07091   4.68060  29.23040  10.68016  29.30370
      20   7.66643  29.84728         19.13800   0.700000  10.68016  29.30370   4.68060  29.23040   4.65269  30.39085  10.65225  30.46415
      20   7.63850  31.00821         19.15395   0.700000  10.65225  30.46415   4.65269  30.39085   4.62476  31.55227  10.62431  31.62557
      20   7.61056  32.17012         19.16992   0.700000  10.62431  31.62557   4.62476  31.55227   4.59680  32.71466  10.59635  32.78796
      20   7.58259  33.33299         19.18590   0.700000  10.59635  32.78796   4.59680  32.71466   4.56882  33.87802  10.56837  33.95132
      20   7.55460  34.49683         19.20190   0.700000  10.56837  33.95132   4.56882  33.87802   4.54082  35.04234  10.54037  35.11564
      20   7.52658  35.66164         19.21790   0.700000  10.54037  35.11564   4.54082  35.04234   4.51279  36.20764  10.51234  36.28094
      20   7.49854  36.82743         19.23393   0.700000  10.51234  36.28094   4.51279  36.20764   4.48474  37.37391  10.48429  37.44721
      20   7.47048  37.99418         19.24996   0.700000  10.48429  37.44721   4.48474  37.37391   4.45666  38.54115  10.45622  38.61445
      20   7.44239  39.16191         19.26601   0.700000  10.45622  38.61445   4.45666  38.54115   4.42857  39.70937  10.42812  39.78267
      20   7.41428  40.33061         19.28207   0.700000  10.42812  39.78267   4.42857  39.70937   4.40045  40.87856  10.40000  40.95186
      20   7.38615  41.50029         19.29815   0.700000  10.40000  40.95186   4.40045  40.87856   4.37230  42.04872  10.37185  42.12202
      20   7.35799  42.67094         19.31423   0.700000  10.37185  42.12202   4.37230  42.04872   4.34413  43.21986  10.34369  43.29316
      20   7.32981  43.84257         19.33034   0.700000  10.34369  43.29316   4.34413  43.21986   4.31594  44.39197  10.31549  44.46528
      20   7.30161  45.01517         19.34645   0.700000  10.31549  44.46528   4.31594  44.39197   4.28773  45.56507  10.28728  45.63837
      20   7.27338  46.18875         19.36258   0.700000  10.28728  45.63837   4.28773  45.56507   4.25949  46.73914  10.25904  46.81244
      20   7.24513  47.36331         19.37872   0.700000  10.25904  46.81244   4.25949  46.73914   4.23123  47.91419  10.23078  47.98749
      20   7.21686  48.53885         19.39488   0.700000  10.23078  47.98749   4.23123  47.91419   4.20294  49.09022  10.20249  49.16352
      20   7.18856  49.71537         19.41105   0.700000  10.20249  49.16352   4.20294  49.09022   4.17463  50.26723  10.17418  50.34053
      20   7.16024  50.89287         19.42723   0.700000  10.17418  50.34053   4.17463  50.26723   4.14630  51.44522  10.14585  51.51852
      20   7.13190  52.07136         19.44343   0.700000  10.14585  51.51852   4.14630  51.44522   4.11794  52.62419  10.11750  52.69749
      20   7.10353  53.25082         19.45964   0.700000  10.11750  52.69749   4.11794  52.62419   4.08956  53.80415  10.08912  53.87745
      20   7.07514  54.43127         19.47586   0.700000  10.08912  53.87745   4.08956  53.80415   4.06116  54.98509  10.06071  55.05839
      20   7.04672  55.61270         19.49210   0.700000  10.06071  55.05839   4.06116  54.98509   4.03273  56.16701  10.03228  56.24031
      20   7.01828  56.79512         19.50835   0.700000  10.03228  56.24031   4.03273  56.16701   4.00428  57.34992  10.00383  57.42322
      20   6.98982  57.97852         19.52461   0.700000  10.00383  57.42322   4.00428  57.34992   3.97581  58.53382   9.97536  58.60712
      20   6.96133  59.16291         19.54089   0.700000   9.97536  58.60712   3.97581  58.53382   3.94731  59.71870   9.94686  59.79200
      20   6.93282  60.34829         19.55718   0.700000   9.94686  59.79200   3.94731  59.71870   3.91879  60.90457   9.91834  60.97788
      20   6.90429  61.53465         19.57348   0.700000   9.91834  60.97788   3.91879  60.90457   3.89024  62.09143   9.88979  62.16474
      20   6.87573  62.72201         19.58980   0.700000   9.88979  62.16474   3.89024  62.09143   3.86167  63.27928   9.86122  63.35258
      20   6.84715  63.91035         19.60613   0.700000   9.86122  63.35258   3.86167  63.27928   3.83308  64.46812   9.83263  64.54142
      20   6.81854  65.09969         19.62248   0.700000   9.83263  64.54142   3.83308  64.46812   3.80446  65.65795   9.80401  65.73126
      20   6.78991  66.29002         19.63884   0.700000   9.80401  65.73126   3.80446  65.65795   3.77582  66.84878   9.77537  66.92208
      20   6.76126  67.48134         19.65521   0.700000   9.77537  66.92208   3.77582  66.84878   3.74715  68.04059   9.74670  68.11389
      20   6.73258  68.67365         19.67160   0.700000   9.74670  68.11389   3.74715  68.04059   3.71846  69.23340   9.71801  69.30670
      20   6.70388  69.86695         19.68799   0.700000   9.71801  69.30670   3.71846  69.23340   3.68975  70.42721   9.68930  70.50051
      20   6.67516  71.06126         19.70441   0.700000   9.68930  70.50051   3.68975  70.42721   3.66101  71.62201   9.66056  71.69531
      20   6.64641  72.25655         19.72084   0.700000   9.66056  71.69531   3.66101  71.62201   3.63225  72.81780   9.63180  72.89110
      20   6.61764  73.45285         19.73728   0.700000   9.63180  72.89110   3.63225  72.81780   3.60347  74.01459   9.60302  74.08789
      20   6.58884  74.65014         19.75373   0.700000   9.60302  74.08789   3.60347  74.01459   3.57466  75.21238   9.57421  75.28568
      20   6.56002  75.84843         19.77020   0.700000   9.57421  75.28568   3.57466  75.21238   3.54582  76.41117   9.54538  76.48447
      20   6.53117  77.04772         19.78668   0.700000   9.54538  76.48447   3.54582  76.41117   3.51697  77.61096   9.51652  77.68426
      20   6.50230  78.24801         19.80318   0.700000   9.51652  77.68426   3.51697  77.61096   3.48809  78.81175   9.48764  78.88505
      20   6.47341  79.44929         19.81969   0.700000   9.48764  78.88505   3.48809  78.81175   3.45918  80.01354   9.45873  80.08684
      20   6.44449  80.65158         19.83621   0.700000   9.45873  80.08684   3.45918  80.01354   3.43025  81.21633   9.42980  81.28963
      20   6.41555  81.85488         19.85275   0.700000   9.42980  81.28963   3.43025  81.21633   3.40130  82.42012   9.40085  82.49343
      20   6.38659  83.05917         19.86930   0.700000   9.40085  82.49343   3.40130  82.42012   3.37232  83.62492   9.37187  83.69822
      20   6.35760  84.26447         19.88586   0.700000   9.37187  83.69822   3.37232  83.62492   3.34332  84.83072   9.34287  84.90403
      20   6.32858  85.47078         19.90244   0.700000   9.34287  84.90403   3.34332  84.83072   3.31429  86.03753   9.31385  86.11083
      20   6.29955  86.67809         19.91903   0.700000   9.31385  86.11083   3.31429  86.03753   3.28524  87.24535   9.28480  87.31865
      20   6.27048  87.88641         19.93564   0.700000   9.28480  87.31865   3.28524  87.24535   3.25617  88.45417   9.25572  88.52747
      20   6.24140  89.09573         19.95226   0.700000   9.25572  88.52747   3.25617  88.45417   3.22707  89.66400   9.22662  89.73730
      20   6.21229  90.30607         19.96889   0.700000   9.22662  89.73730   3.22707  89.66400   3.19795  90.87483   9.19750  90.94814
      20   6.18315  91.51741         19.98554   0.700000   9.19750  90.94814   3.19795  90.87483   3.16880  92.08668   9.16835  92.15998
      20   6.15399  92.72976         20.00220   0.700000   9.16835  92.15998   3.16880  92.08668   3.13963  93.29954   9.13918  93.37284
      20   6.12481  93.94312         20.01888   0.700000   9.13918  93.37284   3.13963  93.29954   3.11044  94.51341   9.10999  94.58671
      20   6.09560  95.15750         20.03557   0.700000   9.10999  94.58671   3.11044  94.51341   3.08122  95.72829   9.08077  95.80159
      20   6.06637  96.37289         20.05227   0.700000   9.08077  95.80159   3.08122  95.72829   3.05197  96.94418   9.05152  97.01748
      20   6.03711  97.58929         20.06899   0.700000   9.05152  97.01748   3.05197  96.94418   3.02270  98.16109   9.02225  98.23439
      20   6.00783  98.80670         20.08572   0.700000   9.02225  98.23439   3.02270  98.16109   2.99341  99.37901   8.99296  99.45231
      20   5.97853 100.02513         20.10246   0.700000   8.99296  99.45231   2.99341  99.37901   2.96409 100.59795   8.96364 100.67125
      20   5.94920 101.24457         20.11922   0.700000   8.96364 100.67125   2.96409 100.59795   2.93475 101.81790   8.93430 101.89120
      20   5.91984 102.46504         20.13600   0.700000   8.93430 101.89120   2.93475 101.81790   2.90538 103.03887   8.90494 103.11217
      20   5.89046 103.68652         20.15278   0.700000   8.90494 103.11217   2.90538 103.03887   2.87599 104.26086   8.87554 104.33416
      20   5.86106 104.90901         20.16958   0.700000   8.87554 104.33416   2.87599 104.26086   2.84658 105.48387   8.84613 105.55717
      20   5.83163 106.13253         20.18640   0.700000   8.84613 105.55717   2.84658 105.48387   2.81714 106.70789   8.81669 106.78120
      20   5.80218 107.35707         20.20323   0.700000   8.81669 106.78120   2.81714 106.70789   2.78767 107.93294   8.78722 108.00624
      20   5.77270 108.58263         20.22007   0.700000   8.78722 108.00624   2.78767 107.93294   2.75818 109.15901   8.75774 109.23231
      20   5.74320 109.80921         20.23693   0.700000   8.75774 109.23231   2.75818 109.15901   2.72867 110.38610   8.72822 110.45940
      20   5.71368 111.03681         20.25380   0.700000   8.72822 110.45940   2.72867 110.38610   2.69913 111.61422   8.69868 111.68752
      20   5.68413 112.26544         20.27068   0.700000   8.69868 111.68752   2.69913 111.61422   2.66957 112.84335   8.66912 112.91666
      20   5.65455 113.49509         20.28758   0.700000   8.66912 112.91666   2.66957 112.84335   2.63998 114.07352   8.63953 114.14682
      20   5.62495 114.72576         20.30450   0.700000   8.63953 114.14682   2.63998 114.07352   2.61037 115.30470   8.60992 115.37801
      20   5.59533 115.95746         20.32142   0.700000   8.60992 115.37801   2.61037 115.30470   2.58073 116.53692   8.58028 116.61022
      20   5.56568 117.19019         20.33837   0.700000   8.58028 116.61022   2.58073 116.53692   2.55107 117.77016   8.55062 117.84346
      20   5.53600 118.42395         20.35532   0.700000   8.55062 117.84346   2.55107 117.77016   2.52138 119.00443   8.52094 119.07773
      20   5.50631 119.65873         20.37229   0.700000   8.52094 119.07773   2.52138 119.00443   2.49167 120.23973   8.49123 120.31303
      20   5.47658 120.89455         20.38928   0.700000   8.49123 120.31303   2.49167 120.23973   2.46194 121.47606   8.46149 121.54936
      20   5.44683 122.13139         20.40627   0.700000   8.46149 121.54936   2.46194 121.47606   2.43218 122.71342   8.43173 122.78672
      20   5.41706 123.36927         20.42329   0.700000   8.43173 122.78672   2.43218 122.71342   2.40239 123.95181   8.40194 124.02512
      20   5.38726 124.60818         20.44031   0.700000   8.40194 124.02512   2.40239 123.95181   2.37258 125.19124   8.37213 125.26454
      20   5.35744 125.84812         20.45735   0.700000   8.37213 125.26454   2.37258 125.19124   2.34275 126.43170   8.34230 126.50500
      20   5.32759 127.08909         20.47441   0.700000   8.34230 126.50500   2.34275 126.43170   2.31289 127.67319   8.31244 127.74649
      19  15.57762   0.23640         19.67160   1.920000  18.58502  -0.20144  12.58839  -0.40247  12.57021   0.67424  18.56684   0.87526
      19  15.55943   1.31355         19.68799   1.920000  18.56684   0.87526  12.57021   0.67424  12.55202   1.75184  18.54865   1.95287
      19  15.54123   2.39161         19.70441   1.920000  18.54865   1.95287  12.55202   1.75184  12.53381   2.83034  18.53044   3.03137
      19  15.52301   3.47056         19.72084   1.920000  18.53044   3.03137  12.53381   2.83034  12.51558   3.90975  18.51221   4.11077
      19  15.50478   4.55041         19.73728   1.920000  18.51221   4.11077  12.51558   3.90975  12.49734   4.99005  18.49397   5.19107
      19  15.48653   5.63116         19.75373   1.920000  18.49397   5.19107  12.49734   4.99005  12.47909   6.07125  18.47572   6.27227
      19  15.46827   6.71281         19.77020   1.920000  18.47572   6.27227  12.47909   6.07125  12.46081   7.15335  18.45745   7.35438
      19  15.44999   7.79537         19.78668   1.920000  18.45745   7.35438  12.46081   7.15335  12.44253   8.23636  18.43916   8.43738
      19  15.43169   8.87883         19.80318   1.920000  18.43916   8.43738  12.44253   8.23636  12.42423   9.32027  18.42086   9.52129
      19  15.41338   9.96319         19.81969   1.920000  18.42086   9.52129  12.42423   9.32027  12.40591  10.40508  18.40254  10.60610
      19  15.39506  11.04845         19.83621   1.920000  18.40254  10.60610  12.40591  10.40508  12.38758  11.49080  18.38421  11.69182
      19  15.37672  12.13462         19.85275   1.920000  18.38421  11.69182  12.38758  11.49080  12.36923  12.57742  18.36586  12.77844
      19  15.35837  13.22169         19.86930   1.920000  18.36586  12.77844  12.36923  12.57742  12.35087  13.66494  18.34750  13.86597
      19  15.34000  14.30967         19.88586   1.920000  18.34750  13.86597  12.35087  13.66494  12.33249  14.75338  18.32912  14.95440
      19  15.32161  15.39856         19.90244   1.920000  18.32912  14.95440  12.33249  14.75338  12.31410  15.84272  18.31073  16.04374
      19  15.30321  16.48836         19.91903   1.920000  18.31073  16.04374  12.31410  15.84272  12.29569  16.93297  18.29232  17.13399
      19  15.28479  17.57906         19.93564   1.920000  18.29232  17.13399  12.29569  16.93297  12.27727  18.02413  18.27390  18.22515
      19  15.26636  18.67067         19.95226   1.920000  18.27390  18.22515  12.27727  18.02413  12.25883  19.11620  18.25546  19.31722
      19  15.24792  19.76320         19.96889   1.920000  18.25546  19.31722  12.25883  19.11620  12.24037  20.20918  18.23700  20.41020
      19  15.22945  20.85663         19.98554   1.920000  18.23700  20.41020  12.24037  20.20918  12.22190  21.30306  18.21853  21.50409
      19  15.21098  21.95098         20.00220   1.920000  18.21853  21.50409  12.22190  21.30306  12.20342  22.39787  18.20005  22.59889
      19  15.19248  23.04624         20.01888   1.920000  18.20005  22.59889  12.20342  22.39787  12.18492  23.49358  18.18155  23.69461
      19  15.17397  24.14241         20.03557   1.920000  18.18155  23.69461  12.18492  23.49358  12.16640  24.59021  18.16303  24.79123
      19  15.15545  25.23949         20.05227   1.920000  18.16303  24.79123  12.16640  24.59021  12.14787  25.68775  18.14450  25.88878
      19  15.13691  26.33749         20.06899   1.920000  18.14450  25.88878  12.14787  25.68775  12.12932  26.78621  18.12595  26.98723
      19  15.11836  27.43641         20.08572   1.920000  18.12595  26.98723  12.12932  26.78621  12.11076  27.88558  18.10739  28.08661
      19  15.09979  28.53624         20.10246   1.920000  18.10739  28.08661  12.11076  27.88558  12.09218  28.98587  18.08881  29.18689
      19  15.08120  29.63699         20.11922   1.920000  18.08881  29.18689  12.09218  28.98587  12.07359  30.08708  18.07022  30.28810
      19  15.06260  30.73865         20.13600   1.920000  18.07022  30.28810  12.07359  30.08708  12.05498  31.18920  18.05161  31.39023
      19  15.04398  31.84124         20.15278   1.920000  18.05161  31.39023  12.05498  31.18920  12.03635  32.29224  18.03299  32.49327
      19  15.02535  32.94474         20.16958   1.920000  18.03299  32.49327  12.03635  32.29224  12.01771  33.39621  18.01435  33.59723
      19  15.00670  34.04916         20.18640   1.920000  18.01435  33.59723  12.01771  33.39621  11.99906  34.50109  17.99569  34.70212
      19  14.98804  35.15451         20.20323   1.920000  17.99569  34.70212  11.99906  34.50109  11.98039  35.60690  17.97702  35.80792
      19  14.96936  36.26077         20.22007   1.920000  17.97702  35.80792  11.98039  35.60690  11.96170  36.71362  17.95833  36.91465
      19  14.95067  37.36796         20.23693   1.920000  17.95833  36.91465  11.96170  36.71362  11.94300  37.82127  17.93963  38.02230
      19  14.93196  38.47607         20.25380   1.920000  17.93963  38.02230  11.94300  37.82127  11.92428  38.92984  17.92091  39.13087
      19  14.91323  39.58510         20.27068   1.920000  17.92091  39.13087  11.92428  38.92984  11.90555  40.03934  17.90218  40.24036
      19  14.89449  40.69506         20.28758   1.920000  17.90218  40.24036  11.90555  40.03934  11.88680  41.14976  17.88343  41.35079
      19  14.87573  41.80595         20.30450   1.920000  17.88343  41.35079  11.88680  41.14976  11.86803  42.26111  17.86467  42.46213
      19  14.85696  42.91776         20.32142   1.920000  17.86467  42.46213  11.86803  42.26111  11.84925  43.37338  17.84589  43.57441
      19  14.83817  44.03049         20.33837   1.920000  17.84589  43.57441  11.84925  43.37338  11.83046  44.48658  17.82709  44.68761
      19  14.81937  45.14416         20.35532   1.920000  17.82709  44.68761  11.83046  44.48658  11.81165  45.60071  17.80828  45.80174
      19  14.80055  46.25875         20.37229   1.920000  17.80828  45.80174  11.81165  45.60071  11.79282  46.71577  17.78945  46.91679
      19  14.78171  47.37428         20.38928   1.920000  17.78945  46.91679  11.79282  46.71577  11.77398  47.83176  17.77061  48.03278
      19  14.76286  48.49073         20.40627   1.920000  17.77061  48.03278  11.77398  47.83176  11.75512  48.94868  17.75175  49.14970
      19  14.74400  49.60811         20.42329   1.920000  17.75175  49.14970  11.75512  48.94868  11.73624  50.06652  17.73287  50.26755
      19  14.72511  50.72643         20.44031   1.920000  17.73287  50.26755  11.73624  50.06652  11.71735  51.18530  17.71398  51.38633
      19  14.70622  51.84567         20.45735   1.920000  17.71398  51.38633  11.71735  51.18530  11.69845  52.30502  17.69508  52.50604
      19  14.68730  52.96585         20.47441   1.920000  17.69508  52.50604  11.69845  52.30502  11.67953  53.42567  17.67616  53.62669
      19  14.66837  54.08697         20.49148   1.920000  17.67616  53.62669  11.67953  53.42567  11.66059  54.54725  17.65722  54.74827
      19  14.64943  55.20902         20.50856   1.920000  17.65722  54.74827  11.66059  54.54725  11.64163  55.66976  17.63827  55.87079
      19  14.63047  56.33200         20.52566   1.920000  17.63827  55.87079  11.64163  55.66976  11.62267  56.79321  17.61930  56.99424
      19  14.61149  57.45592         20.54277   1.920000  17.61930  56.99424  11.62267  56.79321  11.60368  57.91760  17.60031  58.11863
      19  14.59250  58.58078         20.55990   1.920000  17.60031  58.11863  11.60368  57.91760  11.58468  59.04293  17.58131  59.24395
      19  14.57349  59.70657         20.57704   1.920000  17.58131  59.24395  11.58468  59.04293  11.56566  60.16919  17.56230  60.37022
      19  14.55446  60.83331         20.59419   1.920000  17.56230  60.37022  11.56566  60.16919  11.54663  61.29640  17.54326  61.49742
      19  14.53542  61.96098         20.61136   1.920000  17.54326  61.49742  11.54663  61.29640  11.52758  62.42454  17.52421  62.62556
      19  14.51637  63.08959         20.62854   1.920000  17.52421  62.62556  11.52758  62.42454  11.50852  63.55362  17.50515  63.75465
      19  14.49729  64.21915         20.64574   1.920000  17.50515  63.75465  11.50852  63.55362  11.48944  64.68365  17.48607  64.88467
      19  14.47821  65.34964         20.66295   1.920000  17.48607  64.88467  11.48944  64.68365  11.47034  65.81461  17.46697  66.01564
      19  14.45910  66.48108         20.68018   1.920000  17.46697  66.01564  11.47034  65.81461  11.45123  66.94652  17.44786  67.14755
      19  14.43998  67.61346         20.69742   1.920000  17.44786  67.14755  11.45123  66.94652  11.43210  68.07938  17.42873  68.28040
      19  14.42085  68.74679         20.71468   1.920000  17.42873  68.28040  11.43210  68.07938  11.41296  69.21317  17.40959  69.41420
      19  14.40170  69.88106         20.73194   1.920000  17.40959  69.41420  11.41296  69.21317  11.39380  70.34792  17.39043  70.54894
      19  14.38253  71.01627         20.74923   1.920000  17.39043  70.54894  11.39380  70.34792  11.37462  71.48361  17.37126  71.68463
      19  14.36334  72.15244         20.76653   1.920000  17.37126  71.68463  11.37462  71.48361  11.35543  72.62024  17.35206  72.82126
      19  14.34414  73.28954         20.78384   1.920000  17.35206  72.82126  11.35543  72.62024  11.33623  73.75782  17.33286  73.95885
      19  14.32493  74.42760         20.80117   1.920000  17.33286  73.95885  11.33623  73.75782  11.31700  74.89636  17.31363  75.09738
      19  14.30570  75.56661         20.81851   1.920000  17.31363  75.09738  11.31700  74.89636  11.29776  76.03584  17.29439  76.23686
      19  14.28645  76.70656         20.83586   1.920000  17.29439  76.23686  11.29776  76.03584  11.27851  77.17627  17.27514  77.37729
      19  14.26719  77.84747         20.85323   1.920000  17.27514  77.37729  11.27851  77.17627  11.25923  78.31765  17.25587  78.51867
      19  14.24791  78.98933         20.87062   1.920000  17.25587  78.51867  11.25923  78.31765  11.23995  79.45998  17.23658  79.66100
      19  14.22861  80.13213         20.88802   1.920000  17.23658  79.66100  11.23995  79.45998  11.22064  80.60327  17.21727  80.80429
      19  14.20930  81.27590         20.90543   1.920000  17.21727  80.80429  11.22064  80.60327  11.20132  81.74750  17.19795  81.94853
      19  14.18997  82.42061         20.92286   1.920000  17.19795  81.94853  11.20132  81.74750  11.18199  82.89270  17.17862  83.09372
      19  14.17063  83.56628         20.94030   1.920000  17.17862  83.09372  11.18199  82.89270  11.16263  84.03884  17.15927  84.23987
      19  14.15127  84.71291         20.95776   1.920000  17.15927  84.23987  11.16263  84.03884  11.14327  85.18594  17.13990  85.38697
      19  14.13189  85.86049         20.97523   1.920000  17.13990  85.38697  11.14327  85.18594  11.12388  86.33400  17.12051  86.53503
      19  14.11250  87.00902         20.99272   1.920000  17.12051  86.53503  11.12388  86.33400  11.10448  87.48302  17.10111  87.68404
      19  14.09309  88.15852         21.01022   1.920000  17.10111  87.68404  11.10448  87.48302  11.08506  88.63299  17.08170  88.83402
      19  14.07366  89.30897         21.02774   1.920000  17.08170  88.83402  11.08506  88.63299  11.06563  89.78393  17.06226  89.98495
      19  14.05422  90.46038         21.04527   1.920000  17.06226  89.98495  11.06563  89.78393  11.04618  90.93582  17.04281  91.13684
      19  14.03476  91.61276         21.06281   1.920000  17.04281  91.13684  11.04618  90.93582  11.02672  92.08867  17.02335  92.28969
      19  14.01529  92.76609         21.08037   1.920000  17.02335  92.28969  11.02672  92.08867  11.00723  93.24248  17.00387  93.44351
      19  13.99580  93.92038         21.09795   1.920000  17.00387  93.44351  11.00723  93.24248  10.98774  94.39726  16.98437  94.59828
      19  13.97630  95.07564         21.11554   1.920000  16.98437  94.59828  10.98774  94.39726  10.96822  95.55300  16.96485  95.75402
      19  13.95677  96.23186         21.13314   1.920000  16.96485  95.75402  10.96822  95.55300  10.94869  96.70970  16.94532  96.91072
      19  13.93723  97.38904         21.15076   1.920000  16.94532  96.91072  10.94869  96.70970  10.92915  97.86736  16.92578  98.06839
      19  13.91768  98.54719         21.16839   1.920000  16.92578  98.06839  10.92915  97.86736  10.90958  99.02599  16.90621  99.22702
      19  13.89811  99.70630         21.18604   1.920000  16.90621  99.22702  10.90958  99.02599  10.89000 100.18559  16.88663 100.38661
      19  13.87852 100.86638         21.20370   1.920000  16.88663 100.38661  10.89000 100.18559  10.87041 101.34615  16.86704 101.54718
      19  13.85892 102.02743         21.22138   1.920000  16.86704 101.54718  10.87041 101.34615  10.85080 102.50768  16.84743 102.70871
      19  13.83930 103.18945         21.23907   1.920000  16.84743 102.70871  10.85080 102.50768  10.83117 103.67018  16.82780 103.87121
      19  13.81966 104.35243         21.25678   1.920000  16.82780 103.87121  10.83117 103.67018  10.81152 104.83365  16.80815 105.03468
      19  13.80001 105.51638         21.27450   1.920000  16.80815 105.03468  10.81152 104.83365  10.79186 105.99809  16.78849 106.19911
      19  13.78034 106.68131         21.29223   1.920000  16.78849 106.19911  10.79186 105.99809  10.77218 107.16350  16.76882 107.36452
      19  13.76065 107.84720         21.30998   1.920000  16.76882 107.36452  10.77218 107.16350  10.75249 108.32988  16.74912 108.53090
      19  13.74095 109.01407         21.32775   1.920000  16.74912 108.53090  10.75249 108.32988  10.73278 109.49723  16.72941 109.69826
      19  13.72123 110.18191         21.34553   1.920000  16.72941 109.69826  10.73278 109.49723  10.71305 110.66556  16.70968 110.86658
      19  13.70150 111.35072         21.36333   1.920000  16.70968 110.86658  10.71305 110.66556  10.69331 111.83486  16.68994 112.03588
      19  13.68175 112.52051         21.38114   1.920000  16.68994 112.03588  10.69331 111.83486  10.67355 113.00513  16.67018 113.20616
      19  13.66198 113.69127         21.39896   1.920000  16.67018 113.20616  10.67355 113.00513  10.65377 114.17638  16.65041 114.37741
      19  13.64219 114.86301         21.41680   1.920000  16.65041 114.37741  10.65377 114.17638  10.63398 115.34861  16.63061 115.54963
      19  13.62239 116.03572         21.43466   1.920000  16.63061 115.54963  10.63398 115.34861  10.61417 116.52181  16.61080 116.72284
      19  13.60258 117.20942         21.45253   1.920000  16.61080 116.72284  10.61417 116.52181  10.59435 117.69600  16.59098 117.89702
      19  13.58274 118.38409         21.47041   1.920000  16.59098 117.89702  10.59435 117.69600  10.57450 118.87116  16.57114 119.07218
      19  13.56289 119.55974         21.48831   1.920000  16.57114 119.07218  10.57450 118.87116  10.55465 120.04730  16.55128 120.24832
      19  13.54302 120.73637         21.50622   1.920000  16.55128 120.24832  10.55465 120.04730  10.53477 121.22442  16.53140 121.42544
      19  13.52314 121.91398         21.52415   1.920000  16.53140 121.42544  10.53477 121.22442  10.51488 122.40252  16.51151 122.60355
      19  13.50324 123.09258         21.54210   1.920000  16.51151 122.60355  10.51488 122.40252  10.49497 123.58161  16.49160 123.78263
      19  13.48332 124.27215         21.56006   1.920000  16.49160 123.78263  10.49497 123.58161  10.47505 124.76168  16.47168 124.96270
      19  13.46339 125.45271         21.57803   1.920000  16.47168 124.96270  10.47505 124.76168  10.45510 125.94273  16.45174 126.14375
      19  13.44344 126.63426         21.59602   1.920000  16.45174 126.14375  10.45510 125.94273  10.43515 127.12476  16.43178 127.32579
      19  13.42347 127.81679         21.61402   1.920000  16.43178 127.32579  10.43515 127.12476  10.41517 128.30778  16.41180 128.50881
      18  23.40388   1.01640         20.85323   3.140000  26.40435   0.67135  20.41336   0.34270  20.40340   1.36144  26.39439   1.69010
      18  23.39392   2.03557         20.87062   3.140000  26.39439   1.69010  20.40340   1.36144  20.39344   2.38104  26.38443   2.70969
      18  23.38395   3.05559         20.88802   3.140000  26.38443   2.70969  20.39344   2.38104  20.38347   3.40148  26.37446   3.73014
      18  23.37398   4.07646         20.90543   3.140000  26.37446   3.73014  20.38347   3.40148  20.37349   4.42278  26.36448   4.75144
      18  23.36399   5.09818         20.92286   3.140000  26.36448   4.75144  20.37349   4.42278  20.36351   5.44493  26.35450   5.77358
      18  23.35400   6.12075         20.94030   3.140000  26.35450   5.77358  20.36351   5.44493  20.35351   6.46793  26.34450   6.79658
      18  23.34400   7.14418         20.95776   3.140000  26.34450   6.79658  20.35351   6.46793  20.34351   7.49178  26.33450   7.82043
      18  23.33400   8.16846         20.97523   3.140000  26.33450   7.82043  20.34351   7.49178  20.33349   8.51649  26.32449   8.84514
      18  23.32398   9.19359         20.99272   3.140000  26.32449   8.84514  20.33349   8.51649  20.32347   9.54205  26.31447   9.87070
      18  23.31396  10.21958         21.01022   3.140000  26.31447   9.87070  20.32347   9.54205  20.31345  10.56846  26.30444  10.89712
      18  23.30392  11.24642         21.02774   3.140000  26.30444  10.89712  20.31345  10.56846  20.30341  11.59573  26.29440  11.92439
      18  23.29388  12.27412         21.04527   3.140000  26.29440  11.92439  20.30341  11.59573  20.29336  12.62386  26.28436  12.95252
      18  23.28383  13.30268         21.06281   3.140000  26.28436  12.95252  20.29336  12.62386  20.28331  13.65285  26.27430  13.98150
      18  23.27378  14.33209         21.08037   3.140000  26.27430  13.98150  20.28331  13.65285  20.27325  14.68269  26.26424  15.01134
      18  23.26371  15.36237         21.09795   3.140000  26.26424  15.01134  20.27325  14.68269  20.26318  15.71339  26.25417  16.04204
      18  23.25363  16.39350         21.11554   3.140000  26.25417  16.04204  20.26318  15.71339  20.25310  16.74495  26.24409  17.07360
      18  23.24355  17.42549         21.13314   3.140000  26.24409  17.07360  20.25310  16.74495  20.24301  17.77737  26.23400  18.10603
      18  23.23346  18.45834         21.15076   3.140000  26.23400  18.10603  20.24301  17.77737  20.23292  18.81065  26.22391  19.13931
      18  23.22336  19.49205         21.16839   3.140000  26.22391  19.13931  20.23292  18.81065  20.22281  19.84479  26.21380  20.17345
      18  23.21325  20.52662         21.18604   3.140000  26.21380  20.17345  20.22281  19.84479  20.21270  20.87980  26.20369  21.20845
      18  23.20314  21.56206         21.20370   3.140000  26.20369  21.20845  20.21270  20.87980  20.20258  21.91567  26.19357  22.24432
      18  23.19301  22.59836         21.22138   3.140000  26.19357  22.24432  20.20258  21.91567  20.19245  22.95240  26.18344  23.28105
      18  23.18288  23.63552         21.23907   3.140000  26.18344  23.28105  20.19245  22.95240  20.18231  23.98999  26.17330  24.31865
      18  23.17273  24.67355         21.25678   3.140000  26.17330  24.31865  20.18231  23.98999  20.17217  25.02845  26.16316  25.35711
      18  23.16258  25.71244         21.27450   3.140000  26.16316  25.35711  20.17217  25.02845  20.16201  26.06778  26.15300  26.39644
      18  23.15243  26.75220         21.29223   3.140000  26.15300  26.39644  20.16201  26.06778  20.15185  27.10797  26.14284  27.43663
      18  23.14226  27.79283         21.30998   3.140000  26.14284  27.43663  20.15185  27.10797  20.14168  28.14903  26.13267  28.47769
      18  23.13208  28.83433         21.32775   3.140000  26.13267  28.47769  20.14168  28.14903  20.13150  29.19096  26.12249  29.51962
      18  23.12190  29.87669         21.34553   3.140000  26.12249  29.51962  20.13150  29.19096  20.12131  30.23376  26.11230  30.56241
      18  23.11170  30.91992         21.36333   3.140000  26.11230  30.56241  20.12131  30.23376  20.11111  31.27742  26.10210  31.60608
      18  23.10150  31.96402         21.38114   3.140000  26.10210  31.60608  20.11111  31.27742  20.10090  32.32196  26.09190  32.65062
      18  23.09129  33.00899         21.39896   3.140000  26.09190  32.65062  20.10090  32.32196  20.09069  33.36737  26.08168  33.69602
      18  23.08108  34.05483         21.41680   3.140000  26.08168  33.69602  20.09069  33.36737  20.08047  34.41365  26.07146  34.74230
      18  23.07085  35.10155         21.43466   3.140000  26.07146  34.74230  20.08047  34.41365  20.07024  35.46080  26.06123  35.78945
      18  23.06061  36.14914         21.45253   3.140000  26.06123  35.78945  20.07024  35.46080  20.06000  36.50882  26.05099  36.83748
      18  23.05037  37.19760         21.47041   3.140000  26.05099  36.83748  20.06000  36.50882  20.04975  37.55772  26.04074  37.88637
      18  23.04012  38.24693         21.48831   3.140000  26.04074  37.88637  20.04975  37.55772  20.03949  38.60749  26.03048  38.93615
      18  23.02986  39.29714         21.50622   3.140000  26.03048  38.93615  20.03949  38.60749  20.02923  39.65814  26.02022  39.98679
      18  23.01959  40.34823         21.52415   3.140000  26.02022  39.98679  20.02923  39.65814  20.01895  40.70966  26.00995  41.03832
      18  23.00931  41.40019         21.54210   3.140000  26.00995  41.03832  20.01895  40.70966  20.00867  41.76206  25.99966  42.09072
      18  22.99902  42.45303         21.56006   3.140000  25.99966  42.09072  20.00867  41.76206  19.99838  42.81534  25.98937  43.14399
      18  22.98873  43.50674         21.57803   3.140000  25.98937  43.14399  19.99838  42.81534  19.98808  43.86949  25.97907  44.19815
      18  22.97842  44.56134         21.59602   3.140000  25.97907  44.19815  19.98808  43.86949  19.97777  44.92453  25.96876  45.25318
      18  22.96811  45.61681         21.61402   3.140000  25.96876  45.25318  19.97777  44.92453  19.96746  45.98044  25.95845  46.30910
      18  22.95779  46.67317         21.63204   3.140000  25.95845  46.30910  19.96746  45.98044  19.95713  47.03724  25.94812  47.36589
      18  22.94746  47.73040         21.65008   3.140000  25.94812  47.36589  19.95713  47.03724  19.94680  48.09491  25.93779  48.42357
      18  22.93712  48.78852         21.66813   3.140000  25.93779  48.42357  19.94680  48.09491  19.93645  49.15347  25.92745  49.48212
      18  22.92677  49.84752         21.68619   3.140000  25.92745  49.48212  19.93645  49.15347  19.92610  50.21291  25.91709  50.54156
      18  22.91642  50.90740         21.70427   3.140000  25.91709  50.54156  19.92610  50.21291  19.91574  51.27323  25.90673  51.60189
      18  22.90605  51.96816         21.72237   3.140000  25.90673  51.60189  19.91574  51.27323  19.90537  52.33444  25.89637  52.66309
      18  22.89568  53.02981         21.74047   3.140000  25.89637  52.66309  19.90537  52.33444  19.89500  53.39653  25.88599  53.72518
      18  22.88530  54.09234         21.75860   3.140000  25.88599  53.72518  19.89500  53.39653  19.88461  54.45951  25.87560  54.78816
      18  22.87491  55.15576         21.77674   3.140000  25.87560  54.78816  19.88461  54.45951  19.87422  55.52337  25.86521  55.85202
      18  22.86451  56.22007         21.79489   3.140000  25.86521  55.85202  19.87422  55.52337  19.86381  56.58812  25.85481  56.91677
      18  22.85410  57.28527         21.81306   3.140000  25.85481  56.91677  19.86381  56.58812  19.85340  57.65376  25.84439  57.98241
      18  22.84369  58.35135         21.83125   3.140000  25.84439  57.98241  19.85340  57.65376  19.84298  58.72028  25.83397  59.04894
      18  22.83326  59.41832         21.84945   3.140000  25.83397  59.04894  19.84298  58.72028  19.83255  59.78770  25.82354  60.11635
      18  22.82283  60.48618         21.86766   3.140000  25.82354  60.11635  19.83255  59.78770  19.82211  60.85600  25.81311  61.18466
      18  22.81239  61.55493         21.88590   3.140000  25.81311  61.18466  19.82211  60.85600  19.81167  61.92520  25.80266  62.25385
      18  22.80194  62.62457         21.90414   3.140000  25.80266  62.25385  19.81167  61.92520  19.80121  62.99529  25.79221  63.32394
      18  22.79148  63.69510         21.92240   3.140000  25.79221  63.32394  19.80121  62.99529  19.79075  64.06627  25.78174  64.39492
      18  22.78101  64.76653         21.94068   3.140000  25.78174  64.39492  19.79075  64.06627  19.78028  65.13814  25.77127  65.46679
      18  22.77053  65.83885         21.95897   3.140000  25.77127  65.46679  19.78028  65.13814  19.76979  66.21090  25.76079  66.53956
      18  22.76005  66.91206         21.97728   3.140000  25.76079  66.53956  19.76979  66.21090  19.75930  67.28456  25.75030  67.61322
      18  22.74955  67.98617         21.99560   3.140000  25.75030  67.61322  19.75930  67.28456  19.74881  68.35912  25.73980  68.68778
      18  22.73905  69.06117         22.01394   3.140000  25.73980  68.68778  19.74881  68.35912  19.73830  69.43457  25.72929  69.76323
      18  22.72854  70.13707         22.03229   3.140000  25.72929  69.76323  19.73830  69.43457  19.72778  70.51092  25.71877  70.83957
      18  22.71802  71.21387         22.05066   3.140000  25.71877  70.83957  19.72778  70.51092  19.71726  71.58816  25.70825  71.91682
      18  22.70749  72.29156         22.06904   3.140000  25.70825  71.91682  19.71726  71.58816  19.70672  72.66631  25.69771  72.99496
      18  22.69695  73.37016         22.08744   3.140000  25.69771  72.99496  19.70672  72.66631  19.69618  73.74535  25.68717  74.07400
      18  22.68640  74.44965         22.10585   3.140000  25.68717  74.07400  19.69618  73.74535  19.68563  74.82529  25.67662  75.15395
      18  22.67584  75.53004         22.12428   3.140000  25.67662  75.15395  19.68563  74.82529  19.67507  75.90613  25.66606  76.23479
      18  22.66528  76.61133         22.14273   3.140000  25.66606  76.23479  19.67507  75.90613  19.66450  76.98788  25.65549  77.31653
      18  22.65471  77.69353         22.16119   3.140000  25.65549  77.31653  19.66450  76.98788  19.65392  78.07052  25.64491  78.39918
      18  22.64412  78.77662         22.17966   3.140000  25.64491  78.39918  19.65392  78.07052  19.64333  79.15407  25.63433  79.48272
      18  22.63353  79.86062         22.19815   3.140000  25.63433  79.48272  19.64333  79.15407  19.63274  80.23852  25.62373  80.56718
      18  22.62293  80.94553         22.21666   3.140000  25.62373  80.56718  19.63274  80.23852  19.62213  81.32388  25.61313  81.65253
      18  22.61232  82.03133         22.23518   3.140000  25.61313  81.65253  19.62213  81.32388  19.61152  82.41014  25.60251  82.73879
      18  22.60171  83.11805         22.25372   3.140000  25.60251  82.73879  19.61152  82.41014  19.60090  83.49730  25.59189  83.82596
      18  22.59108  84.20566         22.27227   3.140000  25.59189  83.82596  19.60090  83.49730  19.59027  84.58537  25.58126  84.91403
      18  22.58044  85.29419         22.29084   3.140000  25.58126  84.91403  19.59027  84.58537  19.57963  85.67435  25.57062  86.00301
      18  22.56980  86.38362         22.30942   3.140000  25.57062  86.00301  19.57963  85.67435  19.56898  86.76424  25.55997  87.09289
      18  22.55915  87.47396         22.32802   3.140000  25.55997  87.09289  19.56898  86.76424  19.55832  87.85503  25.54931  88.18369
      18  22.54849  88.56521         22.34663   3.140000  25.54931  88.18369  19.55832  87.85503  19.54766  88.94674  25.53865  89.27539
      18  22.53781  89.65737         22.36526   3.140000  25.53865  89.27539  19.54766  88.94674  19.53698  90.03935  25.52797  90.36801
      18  22.52713  90.75045         22.38391   3.140000  25.52797  90.36801  19.53698  90.03935  19.52630  91.13288  25.51729  91.46154
      18  22.51645  91.84443         22.40257   3.140000  25.51729  91.46154  19.52630  91.13288  19.51560  92.22732  25.50660  92.55597
      18  22.50575  92.93932         22.42125   3.140000  25.50660  92.55597  19.51560  92.22732  19.50490  93.32267  25.49589  93.65132
      18  22.49504  94.03513         22.43994   3.140000  25.49589  93.65132  19.50490  93.32267  19.49419  94.41893  25.48518  94.74759
      18  22.48433  95.13185         22.45865   3.140000  25.48518  94.74759  19.49419  94.41893  19.48347  95.51611  25.47446  95.84476
      18  22.47360  96.22948         22.47737   3.140000  25.47446  95.84476  19.48347  95.51611  19.47274  96.61420  25.46373  96.94286
      18  22.46287  97.32803         22.49611   3.140000  25.46373  96.94286  19.47274  96.61420  19.46200  97.71321  25.45300  98.04186
      18  22.45213  98.42750         22.51486   3.140000  25.45300  98.04186  19.46200  97.71321  19.45126  98.81313  25.44225  99.14179
      18  22.44138  99.52788         22.53363   3.140000  25.44225  99.14179  19.45126  98.81313  19.44050  99.91397  25.43149 100.24263
      18  22.43062 100.62918         22.55242   3.140000  25.43149 100.24263  19.44050  99.91397  19.42974 101.01573  25.42073 101.34439
      18  22.41985 101.73140         22.57122   3.140000  25.42073 101.34439  19.42974 101.01573  19.41896 102.11841  25.40996 102.44706
      18  22.40907 102.83454         22.59004   3.140000  25.40996 102.44706  19.41896 102.11841  19.40818 103.22201  25.39917 103.55066
      18  22.39828 103.93859         22.60887   3.140000  25.39917 103.55066  19.40818 103.22201  19.39739 104.32652  25.38838 104.65518
      18  22.38748 105.04357         22.62772   3.140000  25.38838 104.65518  19.39739 104.32652  19.38659 105.43196  25.37758 105.76061
      18  22.37668 106.14947         22.64658   3.140000  25.37758 105.76061  19.38659 105.43196  19.37578 106.53832  25.36677 106.86697
      18  22.36587 107.25629         22.66546   3.140000  25.36677 106.86697  19.37578 106.53832  19.36496 107.64560  25.35595 107.97425
      18  22.35504 108.36403         22.68436   3.140000  25.35595 107.97425  19.36496 107.64560  19.35413 108.75380  25.34512 109.08246
      18  22.34421 109.47270         22.70327   3.140000  25.34512 109.08246  19.35413 108.75380  19.34330 109.86293  25.33429 110.19159
      18  22.33337 110.58229         22.72220   3.140000  25.33429 110.19159  19.34330 109.86293  19.33245 110.97299  25.32344 111.30164
      18  22.32252 111.69280         22.74114   3.140000  25.32344 111.30164  19.33245 110.97299  19.32160 112.08396  25.31259 112.41262
      18  22.31166 112.80424         22.76010   3.140000  25.31259 112.41262  19.32160 112.08396  19.31073 113.19587  25.30172 113.52452
      18  22.30079 113.91661         22.77908   3.140000  25.30172 113.52452  19.31073 113.19587  19.29986 114.30870  25.29085 114.63736
      18  22.28991 115.02991         22.79807   3.140000  25.29085 114.63736  19.29986 114.30870  19.28898 115.42246  25.27997 115.75112
      18  22.27903 116.14413         22.81707   3.140000  25.27997 115.75112  19.28898 115.42246  19.27809 116.53715  25.26908 116.86580
      18  22.26813 117.25928         22.83609   3.140000  25.26908 116.86580  19.27809 116.53715  19.26719 117.65276  25.25818 117.98142
      18  22.25723 118.37537         22.85513   3.140000  25.25818 117.98142  19.26719 117.65276  19.25628 118.76931  25.24727 119.09797
      18  22.24631 119.49238         22.87419   3.140000  25.24727 119.09797  19.25628 118.76931  19.24536 119.88679  25.23635 120.21545
      18  22.23539 120.61032         22.89326   3.140000  25.23635 120.21545  19.24536 119.88679  19.23443 121.00520  25.22542 121.33386
      18  22.22446 121.72920         22.91234   3.140000  25.22542 121.33386  19.23443 121.00520  19.22349 122.12454  25.21449 122.45320
      18  22.21352 122.84901         22.93144   3.140000  25.21449 122.45320  19.22349 122.12454  19.21255 123.24482  25.20354 123.57347
      18  22.20257 123.96975         22.95056   3.140000  25.20354 123.57347  19.21255 123.24482  19.20159 124.36603  25.19259 124.69468
      18  22.19161 125.09143         22.96969   3.140000  25.19259 124.69468  19.20159 124.36603  19.19063 125.48817  25.18162 125.81683
      18  22.18064 126.21404         22.98884   3.140000  25.18162 125.81683  19.19063 125.48817  19.17966 126.61125  25.17065 126.93991
      18  22.16966 127.33759         23.00801   3.140000  25.17065 126.93991  19.17966 126.61125  19.16868 127.73527  25.15967 128.06392
      17  32.08154   0.93830         22.06904   4.470000  35.07345   0.65962  29.09170   0.19200  29.08962   1.21698  35.07137   1.68460
      17  32.07946   1.96370         22.08744   4.470000  35.07137   1.68460  29.08962   1.21698  29.08755   2.24281  35.06930   2.71043
      17  32.07739   2.98996         22.10585   4.470000  35.06930   2.71043  29.08755   2.24281  29.08547   3.26949  35.06722   3.73711
      17  32.07531   4.01707         22.12428   4.470000  35.06722   3.73711  29.08547   3.26949  29.08340   4.29703  35.06515   4.76466
      17  32.07323   5.04504         22.14273   4.470000  35.06515   4.76466  29.08340   4.29703  29.08132   5.32543  35.06307   5.79305
      17  32.07115   6.07387         22.16119   4.470000  35.06307   5.79305  29.08132   5.32543  29.07923   6.35469  35.06098   6.82231
      17  32.06907   7.10356         22.17966   4.470000  35.06098   6.82231  29.07923   6.35469  29.07715   7.38480  35.05890   7.85242
      17  32.06698   8.13410         22.19815   4.470000  35.05890   7.85242  29.07715   7.38480  29.07507   8.41577  35.05682   8.88340
      17  32.06490   9.16550         22.21666   4.470000  35.05682   8.88340  29.07507   8.41577  29.07298   9.44761  35.05473   9.91523
      17  32.06281  10.19776         22.23518   4.470000  35.05473   9.91523  29.07298   9.44761  29.07089  10.48030  35.05264  10.94792
      17  32.06072  11.23089         22.25372   4.470000  35.05264  10.94792  29.07089  10.48030  29.06880  11.51385  35.05055  11.98147
      17  32.05863  12.26487         22.27227   4.470000  35.05055  11.98147  29.06880  11.51385  29.06671  12.54827  35.04846  13.01589
      17  32.05654  13.29972         22.29084   4.470000  35.04846  13.01589  29.06671  12.54827  29.06461  13.58354  35.04636  14.05117
      17  32.05444  14.33542         22.30942   4.470000  35.04636  14.05117  29.06461  13.58354  29.06252  14.61968  35.04427  15.08731
      17  32.05234  15.37200         22.32802   4.470000  35.04427  15.08731  29.06252  14.61968  29.06042  15.65669  35.04217  16.12431
      17  32.05025  16.40943         22.34663   4.470000  35.04217  16.12431  29.06042  15.65669  29.05832  16.69455  35.04007  17.16218
      17  32.04815  17.44773         22.36526   4.470000  35.04007  17.16218  29.05832  16.69455  29.05622  17.73329  35.03797  18.20091
      17  32.04604  18.48690         22.38391   4.470000  35.03797  18.20091  29.05622  17.73329  29.05412  18.77289  35.03587  19.24051
      17  32.04394  19.52693         22.40257   4.470000  35.03587  19.24051  29.05412  18.77289  29.05201  19.81335  35.03376  20.28098
      17  32.04184  20.56783         22.42125   4.470000  35.03376  20.28098  29.05201  19.81335  29.04991  20.85469  35.03166  21.32231
      17  32.03973  21.60960         22.43994   4.470000  35.03166  21.32231  29.04991  20.85469  29.04780  21.89689  35.02955  22.36451
      17  32.03762  22.65224         22.45865   4.470000  35.02955  22.36451  29.04780  21.89689  29.04569  22.93996  35.02744  23.40758
      17  32.03551  23.69574         22.47737   4.470000  35.02744  23.40758  29.04569  22.93996  29.04358  23.98390  35.02533  24.45152
      17  32.03340  24.74012         22.49611   4.470000  35.02533  24.45152  29.04358  23.98390  29.04147  25.02871  35.02322  25.49633
      17  32.03128  25.78536         22.51486   4.470000  35.02322  25.49633  29.04147  25.02871  29.03935  26.07439  35.02110  26.54202
      17  32.02917  26.83148         22.53363   4.470000  35.02110  26.54202  29.03935  26.07439  29.03723  27.12095  35.01898  27.58857
      17  32.02705  27.87847         22.55242   4.470000  35.01898  27.58857  29.03723  27.12095  29.03512  28.16837  35.01687  28.63600
      17  32.02493  28.92633         22.57122   4.470000  35.01687  28.63600  29.03512  28.16837  29.03300  29.21667  35.01475  29.68429
      17  32.02281  29.97507         22.59004   4.470000  35.01475  29.68429  29.03300  29.21667  29.03087  30.26584  35.01262  30.73347
      17  32.02069  31.02468         22.60887   4.470000  35.01262  30.73347  29.03087  30.26584  29.02875  31.31589  35.01050  31.78352
      17  32.01856  32.07517         22.62772   4.470000  35.01050  31.78352  29.02875  31.31589  29.02663  32.36682  35.00837  32.83444
      17  32.01644  33.12653         22.64658   4.470000  35.00837  32.83444  29.02663  32.36682  29.02450  33.41861  35.00625  33.88624
      17  32.01431  34.17876         22.66546   4.470000  35.00625  33.88624  29.02450  33.41861  29.02237  34.47129  35.00412  34.93891
      17  32.01218  35.23188         22.68436   4.470000  35.00412  34.93891  29.02237  34.47129  29.02024  35.52484  35.00199  35.99247
      17  32.01005  36.28587         22.70327   4.470000  35.00199  35.99247  29.02024  35.52484  29.01811  36.57928  34.99986  37.04690
      17  32.00791  37.34074         22.72220   4.470000  34.99986  37.04690  29.01811  36.57928  29.01597  37.63459  34.99772  38.10221
      17  32.00578  38.39649         22.74114   4.470000  34.99772  38.10221  29.01597  37.63459  29.01384  38.69078  34.99558  39.15840
      17  32.00364  39.45313         22.76010   4.470000  34.99558  39.15840  29.01384  38.69078  29.01170  39.74785  34.99345  40.21547
      17  32.00150  40.51064         22.77908   4.470000  34.99345  40.21547  29.01170  39.74785  29.00956  40.80580  34.99131  41.27342
      17  31.99936  41.56903         22.79807   4.470000  34.99131  41.27342  29.00956  40.80580  29.00742  41.86464  34.98917  42.33226
      17  31.99722  42.62831         22.81707   4.470000  34.98917  42.33226  29.00742  41.86464  29.00527  42.92435  34.98702  43.39198
      17  31.99508  43.68847         22.83609   4.470000  34.98702  43.39198  29.00527  42.92435  29.00313  43.98495  34.98488  44.45258
      17  31.99293  44.74951         22.85513   4.470000  34.98488  44.45258  29.00313  43.98495  29.00098  45.04644  34.98273  45.51406
      17  31.99078  45.81144         22.87419   4.470000  34.98273  45.51406  29.00098  45.04644  28.99883  46.10881  34.98058  46.57643
      17  31.98863  46.87425         22.89326   4.470000  34.98058  46.57643  28.99883  46.10881  28.99668  47.17207  34.97843  47.63969
      17  31.98648  47.93795         22.91234   4.470000  34.97843  47.63969  28.99668  47.17207  28.99453  48.23621  34.97628  48.70383
      17  31.98433  49.00253         22.93144   4.470000  34.97628  48.70383  28.99453  48.23621  28.99238  49.30124  34.97413  49.76886
      17  31.98217  50.06801         22.95056   4.470000  34.97413  49.76886  28.99238  49.30124  28.99022  50.36715  34.97197  50.83478
      17  31.98002  51.13437         22.96969   4.470000  34.97197  50.83478  28.99022  50.36715  28.98806  51.43396  34.96981  51.90158
      17  31.97786  52.20162         22.98884   4.470000  34.96981  51.90158  28.98806  51.43396  28.98590  52.50165  34.96765  52.96928
      17  31.97570  53.26976         23.00801   4.470000  34.96765  52.96928  28.98590  52.50165  28.98374  53.57024  34.96549  54.03786
      17  31.97354  54.33879         23.02719   4.470000  34.96549  54.03786  28.98374  53.57024  28.98158  54.63971  34.96333  55.10734
      17  31.97137  55.40871         23.04639   4.470000  34.96333  55.10734  28.98158  54.63971  28.97941  55.71008  34.96116  56.17770
      17  31.96921  56.47952         23.06560   4.470000  34.96116  56.17770  28.97941  55.71008  28.97725  56.78134  34.95900  57.24896
      17  31.96704  57.55123         23.08483   4.470000  34.95900  57.24896  28.97725  56.78134  28.97508  57.85349  34.95683  58.32112
      17  31.96487  58.62383         23.10408   4.470000  34.95683  58.32112  28.97508  57.85349  28.97291  58.92654  34.95466  59.39416
      17  31.96270  59.69732         23.12334   4.470000  34.95466  59.39416  28.97291  58.92654  28.97074  60.00048  34.95249  60.46811
      17  31.96052  60.77171         23.14262   4.470000  34.95249  60.46811  28.97074  60.00048  28.96856  61.07532  34.95031  61.54294
      17  31.95835  61.84700         23.16191   4.470000  34.95031  61.54294  28.96856  61.07532  28.96639  62.15105  34.94814  62.61867
      17  31.95617  62.92318         23.18122   4.470000  34.94814  62.61867  28.96639  62.15105  28.96421  63.22768  34.94596  63.69530
      17  31.95400  64.00026         23.20054   4.470000  34.94596  63.69530  28.96421  63.22768  28.96203  64.30521  34.94378  64.77283
      17  31.95181  65.07823         23.21989   4.470000  34.94378  64.77283  28.96203  64.30521  28.95985  65.38363  34.94160  65.85126
      17  31.94963  66.15711         23.23924   4.470000  34.94160  65.85126  28.95985  65.38363  28.95767  66.46296  34.93942  66.93058
      17  31.94745  67.23688         23.25862   4.470000  34.93942  66.93058  28.95767  66.46296  28.95548  67.54318  34.93723  68.01081
      17  31.94526  68.31756         23.27801   4.470000  34.93723  68.01081  28.95548  67.54318  28.95330  68.62431  34.93504  69.09193
      17  31.94308  69.39913         23.29741   4.470000  34.93504  69.09193  28.95330  68.62431  28.95111  69.70633  34.93286  70.17396
      17  31.94089  70.48161         23.31684   4.470000  34.93286  70.17396  28.95111  69.70633  28.94892  70.78926  34.93067  71.25688
      17  31.93870  71.56499         23.33628   4.470000  34.93067  71.25688  28.94892  70.78926  28.94672  71.87309  34.92847  72.34072
      17  31.93650  72.64927         23.35573   4.470000  34.92847  72.34072  28.94672  71.87309  28.94453  72.95783  34.92628  73.42545
      17  31.93431  73.73446         23.37520   4.470000  34.92628  73.42545  28.94453  72.95783  28.94234  74.04347  34.92408  74.51109
      17  31.93211  74.82055         23.39469   4.470000  34.92408  74.51109  28.94234  74.04347  28.94014  75.13001  34.92189  75.59763
      17  31.92991  75.90755         23.41419   4.470000  34.92189  75.59763  28.94014  75.13001  28.93794  76.21746  34.91969  76.68508
      17  31.92771  76.99545         23.43371   4.470000  34.91969  76.68508  28.93794  76.21746  28.93574  77.30582  34.91749  77.77344
      17  31.92551  78.08426         23.45325   4.470000  34.91749  77.77344  28.93574  77.30582  28.93353  78.39508  34.91528  78.86270
      17  31.92331  79.17398         23.47280   4.470000  34.91528  78.86270  28.93353  78.39508  28.93133  79.48525  34.91308  79.95287
      17  31.92110  80.26460         23.49237   4.470000  34.91308  79.95287  28.93133  79.48525  28.92912  80.57633  34.91087  81.04395
      17  31.91889  81.35614         23.51196   4.470000  34.91087  81.04395  28.92912  80.57633  28.92691  81.66832  34.90866  82.13594
      17  31.91668  82.44858         23.53156   4.470000  34.90866  82.13594  28.92691  81.66832  28.92470  82.76122  34.90645  83.22884
      17  31.91447  83.54194         23.55118   4.470000  34.90645  83.22884  28.92470  82.76122  28.92249  83.85503  34.90424  84.32266
      17  31.91226  84.63621         23.57081   4.470000  34.90424  84.32266  28.92249  83.85503  28.92028  84.94976  34.90203  85.41738
      17  31.91004  85.73139         23.59046   4.470000  34.90203  85.41738  28.92028  84.94976  28.91806  86.04539  34.89981  86.51302
      17  31.90783  86.82748         23.61013   4.470000  34.89981  86.51302  28.91806  86.04539  28.91584  87.14194  34.89759  87.60957
      17  31.90561  87.92449         23.62981   4.470000  34.89759  87.60957  28.91584  87.14194  28.91362  88.23941  34.89537  88.70703
      17  31.90339  89.02241         23.64951   4.470000  34.89537  88.70703  28.91362  88.23941  28.91140  89.33779  34.89315  89.80541
      17  31.90117  90.12124         23.66923   4.470000  34.89315  89.80541  28.91140  89.33779  28.90918  90.43708  34.89093  90.90470
      17  31.89894  91.22100         23.68896   4.470000  34.89093  90.90470  28.90918  90.43708  28.90695  91.53729  34.88870  92.00491
      17  31.89672  92.32167         23.70871   4.470000  34.88870  92.00491  28.90695  91.53729  28.90473  92.63842  34.88648  93.10604
      17  31.89449  93.42325         23.72847   4.470000  34.88648  93.10604  28.90473  92.63842  28.90250  93.74046  34.88425  94.20809
      17  31.89226  94.52576         23.74826   4.470000  34.88425  94.20809  28.90250  93.74046  28.90027  94.84343  34.88202  95.31105
      17  31.89003  95.62918         23.76805   4.470000  34.88202  95.31105  28.90027  94.84343  28.89804  95.94731  34.87978  96.41494
      17  31.88779  96.73353         23.78787   4.470000  34.87978  96.41494  28.89804  95.94731  28.89580  97.05212  34.87755  97.51974
      17  31.88556  97.83879         23.80770   4.470000  34.87755  97.51974  28.89580  97.05212  28.89356  98.15784  34.87531  98.62547
      17  31.88332  98.94498         23.82755   4.470000  34.87531  98.62547  28.89356  98.15784  28.89133  99.26449  34.87308  99.73211
      17  31.88108 100.05209         23.84741   4.470000  34.87308  99.73211  28.89133  99.26449  28.88909 100.37206  34.87084 100.83968
      17  31.87884 101.16012         23.86729   4.470000  34.87084 100.83968  28.88909 100.37206  28.88684 101.48055  34.86859 101.94818
      17  31.87660 102.26907         23.88719   4.470000  34.86859 101.94818  28.88684 101.48055  28.88460 102.58997  34.86635 103.05759
      17  31.87435 103.37895         23.90711   4.470000  34.86635 103.05759  28.88460 102.58997  28.88235 103.70031  34.86410 104.16794
      17  31.87211 104.48976         23.92704   4.470000  34.86410 104.16794  28.88235 103.70031  28.88011 104.81158  34.86186 105.27920
      17  31.86986 105.60149         23.94698   4.470000  34.86186 105.27920  28.88011 104.81158  28.87786 105.92378  34.85961 106.39140
      17  31.86761 106.71415         23.96695   4.470000  34.85961 106.39140  28.87786 105.92378  28.87561 107.03690  34.85736 107.50452
      17  31.86536 107.82773         23.98693   4.470000  34.85736 107.50452  28.87561 107.03690  28.87335 108.15095  34.85510 108.61857
      17  31.86310 108.94225         24.00693   4.470000  34.85510 108.61857  28.87335 108.15095  28.87110 109.26592  34.85285 109.73355
      17  31.86085 110.05769         24.02694   4.470000  34.85285 109.73355  28.87110 109.26592  28.86884 110.38183  34.85059 110.84946
      17  31.85859 111.17406         24.04697   4.470000  34.85059 110.84946  28.86884 110.38183  28.86658 111.49867  34.84833 111.96629
      17  31.85633 112.29137         24.06702   4.470000  34.84833 111.96629  28.86658 111.49867  28.86432 112.61644  34.84607 113.08406
      17  31.85407 113.40960         24.08708   4.470000  34.84607 113.08406  28.86432 112.61644  28.86206 113.73514  34.84381 114.20276
      17  31.85180 114.52877         24.10716   4.470000  34.84381 114.20276  28.86206 113.73514  28.85980 114.85477  34.84155 115.32240
      17  31.84954 115.64887         24.12726   4.470000  34.84155 115.32240  28.85980 114.85477  28.85753 115.97534  34.83928 116.44296
      17  31.84727 116.76990         24.14738   4.470000  34.83928 116.44296  28.85753 115.97534  28.85526 117.09684  34.83701 117.56447
      17  31.84500 117.89187         24.16751   4.470000  34.83701 117.56447  28.85526 117.09684  28.85299 118.21928  34.83474 118.68690
      17  31.84273 119.01478         24.18766   4.470000  34.83474 118.68690  28.85299 118.21928  28.85072 119.34265  34.83247 119.81027
      17  31.84046 120.13862         24.20782   4.470000  34.83247 119.81027  28.85072 119.34265  28.84844 120.46696  34.83019 120.93458
      17  31.83818 121.26339         24.22800   4.470000  34.83019 120.93458  28.84844 120.46696  28.84617 121.59221  34.82792 122.05983
      17  31.83591 122.38911         24.24820   4.470000  34.82792 122.05983  28.84617 121.59221  28.84389 122.71839  34.82564 123.18601
      17  31.83363 123.51576         24.26842   4.470000  34.82564 123.18601  28.84389 122.71839  28.84161 123.84551  34.82336 124.31313
      17  31.83135 124.64335         24.28865   4.470000  34.82336 124.31313  28.84161 123.84551  28.83933 124.97357  34.82108 125.44120
      17  31.82906 125.77189         24.30890   4.470000  34.82108 125.44120  28.83933 124.97357  28.83705 126.10258  34.81880 126.57020
      17  31.82678 126.90136         24.32916   4.470000  34.81880 126.57020  28.83705 126.10258  28.83476 127.23252  34.81651 127.70014
      16  41.85333   0.00461         23.39469   5.590000  44.83605  -0.19830  38.86458  -0.78275  38.87062   0.20751  44.84209   0.79196
      16  41.85938   0.99528         23.41419   5.590000  44.84209   0.79196  38.87062   0.20751  38.87667   1.19860  44.84814   1.78305
      16  41.86543   1.98678         23.43371   5.590000  44.84814   1.78305  38.87667   1.19860  38.88272   2.19051  44.85419   2.77496
      16  41.87149   2.97911         23.45325   5.590000  44.85419   2.77496  38.88272   2.19051  38.88878   3.18325  44.86025   3.76770
      16  41.87755   3.97226         23.47280   5.590000  44.86025   3.76770  38.88878   3.18325  38.89485   4.17682  44.86631   4.76127
      16  41.88361   4.96624         23.49237   5.590000  44.86631   4.76127  38.89485   4.17682  38.90092   5.17121  44.87238   5.75567
      16  41.88969   5.96105         23.51196   5.590000  44.87238   5.75567  38.90092   5.17121  38.90699   6.16644  44.87846   6.75089
      16  41.89576   6.95669         23.53156   5.590000  44.87846   6.75089  38.90699   6.16644  38.91307   7.16249  44.88453   7.74695
      16  41.90184   7.95316         23.55118   5.590000  44.88453   7.74695  38.91307   7.16249  38.91915   8.15938  44.89062   8.74383
      16  41.90793   8.95046         23.57081   5.590000  44.89062   8.74383  38.91915   8.15938  38.92524   9.15709  44.89671   9.74155
      16  41.91402   9.94860         23.59046   5.590000  44.89671   9.74155  38.92524   9.15709  38.93134  10.15564  44.90280  10.74010
      16  41.92012  10.94756         23.61013   5.590000  44.90280  10.74010  38.93134  10.15564  38.93743  11.15502  44.90890  11.73948
      16  41.92622  11.94736         23.62981   5.590000  44.90890  11.73948  38.93743  11.15502  38.94354  12.15524  44.91501  12.73969
      16  41.93233  12.94799         23.64951   5.590000  44.91501  12.73969  38.94354  12.15524  38.94965  13.15629  44.92111  13.74074
      16  41.93844  13.94945         23.66923   5.590000  44.92111  13.74074  38.94965  13.15629  38.95576  14.15817  44.92723  14.74262
      16  41.94456  14.95175         23.68896   5.590000  44.92723  14.74262  38.95576  14.15817  38.96188  15.16088  44.93335  15.74534
      16  41.95068  15.95489         23.70871   5.590000  44.93335  15.74534  38.96188  15.16088  38.96801  16.16444  44.93947  16.74889
      16  41.95681  16.95886         23.72847   5.590000  44.93947  16.74889  38.96801  16.16444  38.97414  17.16883  44.94560  17.75328
      16  41.96294  17.96367         23.74826   5.590000  44.94560  17.75328  38.97414  17.16883  38.98027  18.17406  44.95174  18.75851
      16  41.96907  18.96932         23.76805   5.590000  44.95174  18.75851  38.98027  18.17406  38.98641  19.18012  44.95788  19.76458
      16  41.97522  19.97580         23.78787   5.590000  44.95788  19.76458  38.98641  19.18012  38.99256  20.18703  44.96402  20.77148
      16  41.98137  20.98313         23.80770   5.590000  44.96402  20.77148  38.99256  20.18703  38.99871  21.19477  44.97017  21.77922
      16  41.98752  21.99129         23.82755   5.590000  44.97017  21.77922  38.99871  21.19477  39.00486  22.20335  44.97633  22.78781
      16  41.99368  23.00029         23.84741   5.590000  44.97633  22.78781  39.00486  22.20335  39.01102  23.21278  44.98249  23.79723
      16  41.99984  24.01014         23.86729   5.590000  44.98249  23.79723  39.01102  23.21278  39.01719  24.22304  44.98865  24.80750
      16  42.00601  25.02083         23.88719   5.590000  44.98865  24.80750  39.01719  24.22304  39.02336  25.23415  44.99483  25.81861
      16  42.01218  26.03236         23.90711   5.590000  44.99483  25.81861  39.02336  25.23415  39.02954  26.24610  45.00100  26.83056
      16  42.01836  27.04473         23.92704   5.590000  45.00100  26.83056  39.02954  26.24610  39.03572  27.25890  45.00718  27.84335
      16  42.02454  28.05795         23.94698   5.590000  45.00718  27.84335  39.03572  27.25890  39.04190  28.27254  45.01337  28.85699
      16  42.03073  29.07201         23.96695   5.590000  45.01337  28.85699  39.04190  28.27254  39.04809  29.28702  45.01956  29.87148
      16  42.03693  30.08691         23.98693   5.590000  45.01956  29.87148  39.04809  29.28702  39.05429  30.30235  45.02576  30.88681
      16  42.04312  31.10267         24.00693   5.590000  45.02576  30.88681  39.05429  30.30235  39.06049  31.31853  45.03196  31.90298
      16  42.04933  32.11927         24.02694   5.590000  45.03196  31.90298  39.06049  31.31853  39.06670  32.33555  45.03817  32.92001
      16  42.05554  33.13672         24.04697   5.590000  45.03817  32.92001  39.06670  32.33555  39.07291  33.35342  45.04438  33.93788
      16  42.06175  34.15501         24.06702   5.590000  45.04438  33.93788  39.07291  33.35342  39.07913  34.37214  45.05059  34.95660
      16  42.06797  35.17416         24.08708   5.590000  45.05059  34.95660  39.07913  34.37214  39.08535  35.39171  45.05682  35.97617
      16  42.07420  36.19415         24.10716   5.590000  45.05682  35.97617  39.08535  35.39171  39.09158  36.41213  45.06304  36.99659
      16  42.08043  37.21500         24.12726   5.590000  45.06304  36.99659  39.09158  36.41213  39.09781  37.43340  45.06928  38.01786
      16  42.08666  38.23669         24.14738   5.590000  45.06928  38.01786  39.09781  37.43340  39.10405  38.45553  45.07552  39.03998
      16  42.09290  39.25924         24.16751   5.590000  45.07552  39.03998  39.10405  38.45553  39.11029  39.47850  45.08176  40.06295
      16  42.09915  40.28264         24.18766   5.590000  45.08176  40.06295  39.11029  39.47850  39.11654  40.50233  45.08801  41.08678
      16  42.10540  41.30689         24.20782   5.590000  45.08801  41.08678  39.11654  40.50233  39.12279  41.52701  45.09426  42.11146
      16  42.11166  42.33200         24.22800   5.590000  45.09426  42.11146  39.12279  41.52701  39.12905  42.55254  45.10052  43.13700
      16  42.11792  43.35796         24.24820   5.590000  45.10052  43.13700  39.12905  42.55254  39.13532  43.57893  45.10678  44.16338
      16  42.12418  44.38478         24.26842   5.590000  45.10678  44.16338  39.13532  43.57893  39.14159  44.60617  45.11305  45.19063
      16  42.13046  45.41245         24.28865   5.590000  45.11305  45.19063  39.14159  44.60617  39.14786  45.63428  45.11933  46.21873
      16  42.13673  46.44098         24.30890   5.590000  45.11933  46.21873  39.14786  45.63428  39.15414  46.66323  45.12561  47.24769
      16  42.14302  47.47037         24.32916   5.590000  45.12561  47.24769  39.15414  46.66323  39.16043  47.69305  45.13189  48.27751
      16  42.14930  48.50062         24.34945   5.590000  45.13189  48.27751  39.16043  47.69305  39.16672  48.72373  45.13818  49.30818
      16  42.15560  49.53172         24.36974   5.590000  45.13818  49.30818  39.16672  48.72373  39.17301  49.75526  45.14448  50.33972
      16  42.16189  50.56368         24.39006   5.590000  45.14448  50.33972  39.17301  49.75526  39.17931  50.78765  45.15078  51.37211
      16  42.16820  51.59651         24.41040   5.590000  45.15078  51.37211  39.17931  50.78765  39.18562  51.82091  45.15708  52.40536
      16  42.17451  52.63019         24.43075   5.590000  45.15708  52.40536  39.18562  51.82091  39.19193  52.85503  45.16339  53.43948
      16  42.18082  53.66474         24.45111   5.590000  45.16339  53.43948  39.19193  52.85503  39.19824  53.89000  45.16971  54.47446
      16  42.18714  54.70015         24.47150   5.590000  45.16971  54.47446  39.19824  53.89000  39.20457  54.92584  45.17603  55.51030
      16  42.19346  55.73642         24.49190   5.590000  45.17603  55.51030  39.20457  54.92584  39.21089  55.96255  45.18236  56.54700
      16  42.19979  56.77356         24.51232   5.590000  45.18236  56.54700  39.21089  55.96255  39.21723  57.00012  45.18869  57.58457
      16  42.20613  57.81156         24.53275   5.590000  45.18869  57.58457  39.21723  57.00012  39.22356  58.03855  45.19503  58.62301
      16  42.21247  58.85043         24.55321   5.590000  45.19503  58.62301  39.22356  58.03855  39.22991  59.07785  45.20137  59.66231
      16  42.21881  59.89016         24.57367   5.590000  45.20137  59.66231  39.22991  59.07785  39.23625  60.11802  45.20772  60.70247
      16  42.22516  60.93076         24.59416   5.590000  45.20772  60.70247  39.23625  60.11802  39.24261  61.15905  45.21407  61.74351
      16  42.23152  61.97223         24.61466   5.590000  45.21407  61.74351  39.24261  61.15905  39.24897  62.20095  45.22043  62.78541
      16  42.23788  63.01457         24.63519   5.590000  45.22043  62.78541  39.24897  62.20095  39.25533  63.24372  45.22680  63.82818
      16  42.24425  64.05777         24.65572   5.590000  45.22680  63.82818  39.25533  63.24372  39.26170  64.28736  45.23317  64.87182
      16  42.25062  65.10184         24.67628   5.590000  45.23317  64.87182  39.26170  64.28736  39.26807  65.33187  45.23954  65.91633
      16  42.25700  66.14679         24.69685   5.590000  45.23954  65.91633  39.26807  65.33187  39.27445  66.37725  45.24592  66.96171
      16  42.26338  67.19261         24.71744   5.590000  45.24592  66.96171  39.27445  66.37725  39.28084  67.42350  45.25231  68.00796
      16  42.26977  68.23929         24.73805   5.590000  45.25231  68.00796  39.28084  67.42350  39.28723  68.47063  45.25870  69.05508
      16  42.27616  69.28685         24.75867   5.590000  45.25870  69.05508  39.28723  68.47063  39.29363  69.51862  45.26509  70.10308
      16  42.28256  70.33529         24.77931   5.590000  45.26509  70.10308  39.29363  69.51862  39.30003  70.56749  45.27149  71.15195
      16  42.28896  71.38459         24.79997   5.590000  45.27149  71.15195  39.30003  70.56749  39.30643  71.61724  45.27790  72.20169
      16  42.29537  72.43478         24.82064   5.590000  45.27790  72.20169  39.30643  71.61724  39.31285  72.66786  45.28431  73.25231
      16  42.30179  73.48584         24.84134   5.590000  45.28431  73.25231  39.31285  72.66786  39.31926  73.71936  45.29073  74.30381
      16  42.30821  74.53777         24.86205   5.590000  45.29073  74.30381  39.31926  73.71936  39.32569  74.77173  45.29715  75.35618
      16  42.31463  75.59058         24.88277   5.590000  45.29715  75.35618  39.32569  74.77173  39.33211  75.82498  45.30358  76.40943
      16  42.32106  76.64427         24.90352   5.590000  45.30358  76.40943  39.33211  75.82498  39.33855  76.87911  45.31001  77.46356
      16  42.32750  77.69884         24.92428   5.590000  45.31001  77.46356  39.33855  76.87911  39.34499  77.93411  45.31645  78.51857
      16  42.33394  78.75428         24.94506   5.590000  45.31645  78.51857  39.34499  77.93411  39.35143  78.99000  45.32290  79.57445
      16  42.34039  79.81061         24.96585   5.590000  45.32290  79.57445  39.35143  78.99000  39.35788  80.04677  45.32935  80.63122
      16  42.34684  80.86782         24.98667   5.590000  45.32935  80.63122  39.35788  80.04677  39.36433  81.10441  45.33580  81.68887
      16  42.35330  81.92591         25.00750   5.590000  45.33580  81.68887  39.36433  81.10441  39.37079  82.16294  45.34226  82.74740
      16  42.35976  82.98488         25.02835   5.590000  45.34226  82.74740  39.37079  82.16294  39.37726  83.22235  45.34873  83.80681
      16  42.36623  84.04473         25.04921   5.590000  45.34873  83.80681  39.37726  83.22235  39.38373  84.28265  45.35520  84.86710
      16  42.37270  85.10547         25.07010   5.590000  45.35520  84.86710  39.38373  84.28265  39.39021  85.34383  45.36167  85.92828
      16  42.37918  86.16709         25.09100   5.590000  45.36167  85.92828  39.39021  85.34383  39.39669  86.40589  45.36815  86.99035
      16  42.38567  87.22959         25.11191   5.590000  45.36815  86.99035  39.39669  86.40589  39.40318  87.46884  45.37464  88.05330
      16  42.39216  88.29299         25.13285   5.590000  45.37464  88.05330  39.40318  87.46884  39.40967  88.53268  45.38113  89.11713
      16  42.39865  89.35727         25.15380   5.590000  45.38113  89.11713  39.40967  88.53268  39.41617  89.59740  45.38763  90.18185
      16  42.40515  90.42243         25.17477   5.590000  45.38763  90.18185  39.41617  89.59740  39.42267  90.66301  45.39414  91.24746
      16  42.41166  91.48849         25.19576   5.590000  45.39414  91.24746  39.42267  90.66301  39.42918  91.72951  45.40064  92.31396
      16  42.41817  92.55543         25.21677   5.590000  45.40064  92.31396  39.42918  91.72951  39.43569  92.79689  45.40716  93.38135
      16  42.42469  93.62326         25.23779   5.590000  45.40716  93.38135  39.43569  92.79689  39.44221  93.86517  45.41368  94.44963
      16  42.43121  94.69198         25.25883   5.590000  45.41368  94.44963  39.44221  93.86517  39.44874  94.93434  45.42020  95.51879
      16  42.43774  95.76160         25.27989   5.590000  45.42020  95.51879  39.44874  94.93434  39.45527  96.00440  45.42673  96.58885
      16  42.44427  96.83210         25.30096   5.590000  45.42673  96.58885  39.45527  96.00440  39.46180  97.07535  45.43327  97.65980
      16  42.45081  97.90350         25.32205   5.590000  45.43327  97.65980  39.46180  97.07535  39.46835  98.14719  45.43981  98.73165
      16  42.45735  98.97579         25.34317   5.590000  45.43981  98.73165  39.46835  98.14719  39.47489  99.21993  45.44636  99.80439
      16  42.46390 100.04897         25.36429   5.590000  45.44636  99.80439  39.47489  99.21993  39.48144 100.29356  45.45291 100.87802
      16  42.47046 101.12305         25.38544   5.590000  45.45291 100.87802  39.48144 100.29356  39.48800 101.36809  45.45947 101.95255
      16  42.47702 102.19803         25.40660   5.590000  45.45947 101.95255  39.48800 101.36809  39.49457 102.44351  45.46603 103.02797
      16  42.48358 103.27390         25.42778   5.590000  45.46603 103.02797  39.49457 102.44351  39.50113 103.51983  45.47260 104.10429
      16  42.49015 104.35067         25.44898   5.590000  45.47260 104.10429  39.50113 103.51983  39.50771 104.59705  45.47917 105.18150
      16  42.49673 105.42833         25.47020   5.590000  45.47917 105.18150  39.50771 104.59705  39.51429 105.67516  45.48575 106.25962
      16  42.50331 106.50690         25.49143   5.590000  45.48575 106.25962  39.51429 105.67516  39.52087 106.75418  45.49234 107.33863
      16  42.50990 107.58636         25.51268   5.590000  45.49234 107.33863  39.52087 106.75418  39.52746 107.83409  45.49893 108.41855
      16  42.51650 108.66672         25.53395   5.590000  45.49893 108.41855  39.52746 107.83409  39.53406 108.91490  45.50553 109.49936
      16  42.52309 109.74799         25.55524   5.590000  45.50553 109.49936  39.53406 108.91490  39.54066 109.99662  45.51213 110.58107
      16  42.52970 110.83015         25.57655   5.590000  45.51213 110.58107  39.54066 109.99662  39.54727 111.07923  45.51874 111.66369
      16  42.53631 111.91322         25.59787   5.590000  45.51874 111.66369  39.54727 111.07923  39.55388 112.16275  45.52535 112.74721
      16  42.54292 112.99719         25.61921   5.590000  45.52535 112.74721  39.55388 112.16275  39.56050 113.24718  45.53197 113.83163
      16  42.54955 114.08207         25.64057   5.590000  45.53197 113.83163  39.56050 113.24718  39.56712 114.33250  45.53859 114.91696
      16  42.55617 115.16784         25.66194   5.590000  45.53859 114.91696  39.56712 114.33250  39.57375 115.41873  45.54522 116.00319
      16  42.56280 116.25453         25.68334   5.590000  45.54522 116.00319  39.57375 115.41873  39.58039 116.50587  45.55185 117.09032
      16  42.56944 117.34212         25.70475   5.590000  45.55185 117.09032  39.58039 116.50587  39.58703 117.59391  45.55849 118.17837
      16  42.57608 118.43061         25.72618   5.590000  45.55849 118.17837  39.58703 117.59391  39.59367 118.68286  45.56514 119.26732
      16  42.58273 119.52002         25.74763   5.590000  45.56514 119.26732  39.59367 118.68286  39.60033 119.77272  45.57179 120.35718
      16  42.58939 120.61033         25.76909   5.590000  45.57179 120.35718  39.60033 119.77272  39.60698 120.86349  45.57845 121.44794
      16  42.59605 121.70155         25.79057   5.590000  45.57845 121.44794  39.60698 120.86349  39.61364 121.95516  45.58511 122.53962
      16  42.60271 122.79368         25.81207   5.590000  45.58511 122.53962  39.61364 121.95516  39.62031 123.04775  45.59178 123.63220
      16  42.60938 123.88672         25.83359   5.590000  45.59178 123.63220  39.62031 123.04775  39.62699 124.14124  45.59845 124.72570
      16  42.61606 124.98068         25.85513   5.590000  45.59845 124.72570  39.62699 124.14124  39.63367 125.23565  45.60513 125.82011
      16  42.62274 126.07554         25.87669   5.590000  45.60513 125.82011  39.63367 125.23565  39.64035 126.33097  45.61182 126.91543
      16  42.62943 127.17132         25.89826   5.590000  45.61182 126.91543  39.64035 126.33097  39.64704 127.42721  45.61851 128.01166
      15  52.95351   0.61712         24.94506   6.820000  55.92480   0.47475  49.96725  -0.23775  49.98222   0.75948  55.93977   1.47198
      15  52.96849   1.61476         24.96585   6.820000  55.93977   1.47198  49.98222   0.75948  49.99721   1.75754  55.95475   2.47005
      15  52.98348   2.61324         24.98667   6.820000  55.95475   2.47005  49.99721   1.75754  50.01220   2.75644  55.96975   3.46894
      15  52.99848   3.61255         25.00750   6.820000  55.96975   3.46894  50.01220   2.75644  50.02721   3.75616  55.98475   4.46867
      15  53.01349   4.61270         25.02835   6.820000  55.98475   4.46867  50.02721   3.75616  50.04223   4.75672  55.99977   5.46923
      15  53.02852   5.61367         25.04921   6.820000  55.99977   5.46923  50.04223   4.75672  50.05726   5.75812  56.01481   6.47062
      15  53.04356   6.61549         25.07010   6.820000  56.01481   6.47062  50.05726   5.75812  50.07231   6.76035  56.02985   7.47285
      15  53.05861   7.61813         25.09100   6.820000  56.02985   7.47285  50.07231   6.76035  50.08736   7.76341  56.04491   8.47592
      15  53.07367   8.62162         25.11191   6.820000  56.04491   8.47592  50.08736   7.76341  50.10244   8.76732  56.05998   9.47982
      15  53.08875   9.62594         25.13285   6.820000  56.05998   9.47982  50.10244   8.76732  50.11752   9.77205  56.07506  10.48456
      15  53.10384  10.63109         25.15380   6.820000  56.07506  10.48456  50.11752   9.77205  50.13261  10.77763  56.09016  11.49013
      15  53.11894  11.63709         25.17477   6.820000  56.09016  11.49013  50.13261  10.77763  50.14772  11.78404  56.10527  12.49655
      15  53.13405  12.64392         25.19576   6.820000  56.10527  12.49655  50.14772  11.78404  50.16284  12.79130  56.12039  13.50380
      15  53.14918  13.65160         25.21677   6.820000  56.12039  13.50380  50.16284  12.79130  50.17797  13.79939  56.13552  14.51189
      15  53.16432  14.66011         25.23779   6.820000  56.13552  14.51189  50.17797  13.79939  50.19312  14.80832  56.15067  15.52083
      15  53.17947  15.66946         25.25883   6.820000  56.15067  15.52083  50.19312  14.80832  50.20828  15.81810  56.16582  16.53060
      15  53.19464  16.67966         25.27989   6.820000  56.16582  16.53060  50.20828  15.81810  50.22345  16.82872  56.18099  17.54122
      15  53.20981  17.69070         25.30096   6.820000  56.18099  17.54122  50.22345  16.82872  50.23863  17.84017  56.19618  18.55268
      15  53.22500  18.70258         25.32205   6.820000  56.19618  18.55268  50.23863  17.84017  50.25383  18.85248  56.21137  19.56498
      15  53.24021  19.71530         25.34317   6.820000  56.21137  19.56498  50.25383  18.85248  50.26904  19.86562  56.22658  20.57813
      15  53.25542  20.72887         25.36429   6.820000  56.22658  20.57813  50.26904  19.86562  50.28426  20.87961  56.24181  21.59212
      15  53.27065  21.74328         25.38544   6.820000  56.24181  21.59212  50.28426  20.87961  50.29950  21.89445  56.25704  22.60695
      15  53.28589  22.75854         25.40660   6.820000  56.25704  22.60695  50.29950  21.89445  50.31474  22.91013  56.27229  23.62263
      15  53.30114  23.77465         25.42778   6.820000  56.27229  23.62263  50.31474  22.91013  50.33000  23.92666  56.28755  24.63916
      15  53.31641  24.79160         25.44898   6.820000  56.28755  24.63916  50.33000  23.92666  50.34527  24.94404  56.30282  25.65654
      15  53.33169  25.80940         25.47020   6.820000  56.30282  25.65654  50.34527  24.94404  50.36056  25.96226  56.31810  26.67476
      15  53.34698  26.82805         25.49143   6.820000  56.31810  26.67476  50.36056  25.96226  50.37586  26.98133  56.33340  27.69384
      15  53.36229  27.84755         25.51268   6.820000  56.33340  27.69384  50.37586  26.98133  50.39117  28.00126  56.34871  28.71376
      15  53.37760  28.86790         25.53395   6.820000  56.34871  28.71376  50.39117  28.00126  50.40649  29.02203  56.36404  29.73453
      15  53.39293  29.88909         25.55524   6.820000  56.36404  29.73453  50.40649  29.02203  50.42183  30.04365  56.37937  30.75616
      15  53.40828  30.91114         25.57655   6.820000  56.37937  30.75616  50.42183  30.04365  50.43718  31.06613  56.39472  31.77863
      15  53.42363  31.93405         25.59787   6.820000  56.39472  31.77863  50.43718  31.06613  50.45254  32.08946  56.41008  32.80196
      15  53.43900  32.95780         25.61921   6.820000  56.41008  32.80196  50.45254  32.08946  50.46791  33.11364  56.42546  33.82614
      15  53.45438  33.98241         25.64057   6.820000  56.42546  33.82614  50.46791  33.11364  50.48330  34.13868  56.44085  34.85118
      15  53.46977  35.00787         25.66194   6.820000  56.44085  34.85118  50.48330  34.13868  50.49870  35.16457  56.45625  35.87707
      15  53.48518  36.03419         25.68334   6.820000  56.45625  35.87707  50.49870  35.16457  50.51411  36.19131  56.47166  36.90381
      15  53.50060  37.06136         25.70475   6.820000  56.47166  36.90381  50.51411  36.19131  50.52954  37.21891  56.48709  37.93141
      15  53.51603  38.08939         25.72618   6.820000  56.48709  37.93141  50.52954  37.21891  50.54498  38.24737  56.50252  38.95987
      15  53.53148  39.11828         25.74763   6.820000  56.50252  38.95987  50.54498  38.24737  50.56043  39.27668  56.51798  39.98919
      15  53.54694  40.14802         25.76909   6.820000  56.51798  39.98919  50.56043  39.27668  50.57590  40.30686  56.53344  41.01936
      15  53.56241  41.17863         25.79057   6.820000  56.53344  41.01936  50.57590  40.30686  50.59137  41.33789  56.54892  42.05039
      15  53.57789  42.21009         25.81207   6.820000  56.54892  42.05039  50.59137  41.33789  50.60686  42.36978  56.56441  43.08228
      15  53.59339  43.24241         25.83359   6.820000  56.56441  43.08228  50.60686  42.36978  50.62237  43.40253  56.57991  44.11504
      15  53.60890  44.27559         25.85513   6.820000  56.57991  44.11504  50.62237  43.40253  50.63788  44.43615  56.59543  45.14865
      15  53.62442  45.30963         25.87669   6.820000  56.59543  45.14865  50.63788  44.43615  50.65341  45.47062  56.61096  46.18312
      15  53.63996  46.34454         25.89826   6.820000  56.61096  46.18312  50.65341  45.47062  50.66895  46.50596  56.62650  47.21846
      15  53.65550  47.38031         25.91985   6.820000  56.62650  47.21846  50.66895  46.50596  50.68451  47.54216  56.64205  48.25466
      15  53.67107  48.41694         25.94146   6.820000  56.64205  48.25466  50.68451  47.54216  50.70008  48.57922  56.65762  49.29172
      15  53.68664  49.45444         25.96309   6.820000  56.65762  49.29172  50.70008  48.57922  50.71566  49.61715  56.67320  50.32965
      15  53.70223  50.49280         25.98473   6.820000  56.67320  50.32965  50.71566  49.61715  50.73125  50.65594  56.68880  51.36845
      15  53.71783  51.53203         26.00639   6.820000  56.68880  51.36845  50.73125  50.65594  50.74686  51.69560  56.70440  52.40811
      15  53.73344  52.57212         26.02807   6.820000  56.70440  52.40811  50.74686  51.69560  50.76248  52.73613  56.72002  53.44863
      15  53.74907  53.61308         26.04977   6.820000  56.72002  53.44863  50.76248  52.73613  50.77811  53.77752  56.73566  54.49003
      15  53.76471  54.65491         26.07149   6.820000  56.73566  54.49003  50.77811  53.77752  50.79376  54.81979  56.75130  55.53229
      15  53.78036  55.69760         26.09323   6.820000  56.75130  55.53229  50.79376  54.81979  50.80942  55.86292  56.76696  56.57542
      15  53.79603  56.74117         26.11498   6.820000  56.76696  56.57542  50.80942  55.86292  50.82509  56.90692  56.78264  57.61942
      15  53.81171  57.78561         26.13675   6.820000  56.78264  57.61942  50.82509  56.90692  50.84078  57.95179  56.79832  58.66429
      15  53.82740  58.83091         26.15854   6.820000  56.79832  58.66429  50.84078  57.95179  50.85647  58.99753  56.81402  59.71003
      15  53.84310  59.87709         26.18035   6.820000  56.81402  59.71003  50.85647  58.99753  50.87219  60.04414  56.82973  60.75665
      15  53.85882  60.92414         26.20217   6.820000  56.82973  60.75665  50.87219  60.04414  50.88791  61.09163  56.84545  61.80413
      15  53.87455  61.97206         26.22402   6.820000  56.84545  61.80413  50.88791  61.09163  50.90365  62.13999  56.86119  62.85249
      15  53.89030  63.02086         26.24588   6.820000  56.86119  62.85249  50.90365  62.13999  50.91940  63.18922  56.87694  63.90173
      15  53.90605  64.07053         26.26776   6.820000  56.87694  63.90173  50.91940  63.18922  50.93516  64.23933  56.89271  64.95184
      15  53.92182  65.12108         26.28966   6.820000  56.89271  64.95184  50.93516  64.23933  50.95094  65.29032  56.90848  66.00282
      15  53.93761  66.17250         26.31158   6.820000  56.90848  66.00282  50.95094  65.29032  50.96673  66.34218  56.92427  67.05468
      15  53.95340  67.22480         26.33351   6.820000  56.92427  67.05468  50.96673  66.34218  50.98253  67.39491  56.94008  68.10742
      15  53.96921  68.27797         26.35547   6.820000  56.94008  68.10742  50.98253  67.39491  50.99835  68.44853  56.95589  69.16103
      15  53.98504  69.33203         26.37744   6.820000  56.95589  69.16103  50.99835  68.44853  51.01418  69.50302  56.97172  70.21553
      15  54.00087  70.38696         26.39943   6.820000  56.97172  70.21553  51.01418  69.50302  51.03002  70.55839  56.98757  71.27090
      15  54.01672  71.44277         26.42144   6.820000  56.98757  71.27090  51.03002  70.55839  51.04588  71.61465  57.00342  72.32715
      15  54.03259  72.49946         26.44347   6.820000  57.00342  72.32715  51.04588  71.61465  51.06175  72.67178  57.01929  73.38428
      15  54.04846  73.55704         26.46551   6.820000  57.01929  73.38428  51.06175  72.67178  51.07763  73.72979  57.03517  74.44230
      15  54.06435  74.61549         26.48757   6.820000  57.03517  74.44230  51.07763  73.72979  51.09353  74.78869  57.05107  75.50119
      15  54.08025  75.67483         26.50966   6.820000  57.05107  75.50119  51.09353  74.78869  51.10943  75.84847  57.06698  76.56097
      15  54.09617  76.73505         26.53176   6.820000  57.06698  76.56097  51.10943  75.84847  51.12536  76.90913  57.08290  77.62163
      15  54.11210  77.79615         26.55388   6.820000  57.08290  77.62163  51.12536  76.90913  51.14129  77.97067  57.09884  78.68318
      15  54.12804  78.85814         26.57601   6.820000  57.09884  78.68318  51.14129  77.97067  51.15724  79.03311  57.11479  79.74561
      15  54.14399  79.92102         26.59817   6.820000  57.11479  79.74561  51.15724  79.03311  51.17320  80.09642  57.13075  80.80893
      15  54.15996  80.98478         26.62034   6.820000  57.13075  80.80893  51.17320  80.09642  51.18918  81.16063  57.14672  81.87313
      15  54.17595  82.04942         26.64254   6.820000  57.14672  81.87313  51.18918  81.16063  51.20517  82.22572  57.16271  82.93822
      15  54.19194  83.11496         26.66475   6.820000  57.16271  82.93822  51.20517  82.22572  51.22117  83.29170  57.17871  84.00420
      15  54.20795  84.18138         26.68698   6.820000  57.17871  84.00420  51.22117  83.29170  51.23719  84.35856  57.19473  85.07107
      15  54.22397  85.24869         26.70923   6.820000  57.19473  85.07107  51.23719  84.35856  51.25321  85.42632  57.21076  86.13882
      15  54.24001  86.31690         26.73149   6.820000  57.21076  86.13882  51.25321  85.42632  51.26926  86.49497  57.22680  87.20747
      15  54.25606  87.38599         26.75378   6.820000  57.22680  87.20747  51.26926  86.49497  51.28531  87.56450  57.24286  88.27701
      15  54.27212  88.45597         26.77608   6.820000  57.24286  88.27701  51.28531  87.56450  51.30138  88.63493  57.25893  89.34744
      15  54.28819  89.52685         26.79841   6.820000  57.25893  89.34744  51.30138  88.63493  51.31746  89.70626  57.27501  90.41876
      15  54.30428  90.59862         26.82075   6.820000  57.27501  90.41876  51.31746  89.70626  51.33356  90.77847  57.29110  91.49097
      15  54.32039  91.67128         26.84311   6.820000  57.29110  91.49097  51.33356  90.77847  51.34967  91.85158  57.30721  92.56408
      15  54.33650  92.74483         26.86549   6.820000  57.30721  92.56408  51.34967  91.85158  51.36579  92.92558  57.32334  93.63809
      15  54.35263  93.81928         26.88788   6.820000  57.32334  93.63809  51.36579  92.92558  51.38193  94.00048  57.33947  94.71299
      15  54.36877  94.89463         26.91030   6.820000  57.33947  94.71299  51.38193  94.00048  51.39808  95.07628  57.35562  95.78878
      15  54.38493  95.97087         26.93273   6.820000  57.35562  95.78878  51.39808  95.07628  51.41424  96.15297  57.37178  96.86547
      15  54.40110  97.04802         26.95519   6.820000  57.37178  96.86547  51.41424  96.15297  51.43042  97.23056  57.38796  97.94306
      15  54.41728  98.12605         26.97766   6.820000  57.38796  97.94306  51.43042  97.23056  51.44661  98.30905  57.40415  99.02155
      15  54.43348  99.20499         27.00015   6.820000  57.40415  99.02155  51.44661  98.30905  51.46281  99.38843  57.42035 100.10094
      15  54.44969 100.28483         27.02266   6.820000  57.42035 100.10094  51.46281  99.38843  51.47903 100.46872  57.43657 101.18122
      15  54.46591 101.36556         27.04519   6.820000  57.43657 101.18122  51.47903 100.46872  51.49526 101.54991  57.45280 102.26241
      15  54.48215 102.44720         27.06773   6.820000  57.45280 102.26241  51.49526 101.54991  51.51150 102.63200  57.46904 103.34450
      15  54.49840 103.52974         27.09030   6.820000  57.46904 103.34450  51.51150 102.63200  51.52776 103.71499  57.48530 104.42749
      15  54.51467 104.61318         27.11288   6.820000  57.48530 104.42749  51.52776 103.71499  51.54403 104.79888  57.50157 105.51138
      15  54.53094 105.69753         27.13549   6.820000  57.50157 105.51138  51.54403 104.79888  51.56031 105.88368  57.51786 106.59618
      15  54.54723 106.78278         27.15811   6.820000  57.51786 106.59618  51.56031 105.88368  51.57661 106.96938  57.53416 107.68188
      15  54.56354 107.86893         27.18075   6.820000  57.53416 107.68188  51.57661 106.96938  51.59292 108.05599  57.55047 108.76849
      15  54.57986 108.95599         27.20341   6.820000  57.55047 108.76849  51.59292 108.05599  51.60925 109.14350  57.56679 109.85600
      15  54.59619 110.04396         27.22609   6.820000  57.56679 109.85600  51.60925 109.14350  51.62559 110.23192  57.58313 110.94442
      15  54.61254 111.13283         27.24879   6.820000  57.58313 110.94442  51.62559 110.23192  51.64194 111.32124  57.59949 112.03375
      15  54.62890 112.22261         27.27151   6.820000  57.59949 112.03375  51.64194 111.32124  51.65831 112.41148  57.61585 113.12398
      15  54.64527 113.31330         27.29424   6.820000  57.61585 113.12398  51.65831 112.41148  51.67469 113.50262  57.63223 114.21513
      15  54.66166 114.40490         27.31700   6.820000  57.63223 114.21513  51.67469 113.50262  51.69108 114.59468  57.64862 115.30718
      15  54.67806 115.49741         27.33977   6.820000  57.64862 115.30718  51.69108 114.59468  51.70749 115.68764  57.66503 116.40014
      15  54.69447 116.59083         27.36256   6.820000  57.66503 116.40014  51.70749 115.68764  51.72391 116.78151  57.68145 117.49402
      15  54.71090 117.68516         27.38537   6.820000  57.68145 117.49402  51.72391 116.78151  51.74034 117.87630  57.69789 118.58880
      15  54.72734 118.78040         27.40820   6.820000  57.69789 118.58880  51.74034 117.87630  51.75679 118.97200  57.71434 119.68450
      15  54.74379 119.87656         27.43105   6.820000  57.71434 119.68450  51.75679 118.97200  51.77325 120.06861  57.73080 120.78112
      15  54.76026 120.97363         27.45392   6.820000  57.73080 120.78112  51.77325 120.06861  51.78973 121.16614  57.74727 121.87864
      15  54.77675 122.07161         27.47681   6.820000  57.74727 121.87864  51.78973 121.16614  51.80622 122.26458  57.76376 122.97709
      15  54.79324 123.17051         27.49972   6.820000  57.76376 122.97709  51.80622 122.26458  51.82272 123.36394  57.78027 124.07644
      15  54.80975 124.27033         27.52264   6.820000  57.78027 124.07644  51.82272 123.36394  51.83924 124.46422  57.79678 125.17672
      15  54.82628 125.37106         27.54559   6.820000  57.79678 125.17672  51.83924 124.46422  51.85577 125.56541  57.81331 126.27791
      15  54.84281 126.47271         27.56855   6.820000  57.81331 126.27791  51.85577 125.56541  51.87231 126.66752  57.82986 127.38002
      15  54.85937 127.57528         27.59154   6.820000  57.82986 127.38002  51.87231 126.66752  51.88887 127.77055  57.84642 128.48305
      14  65.55479   0.56866         26.68698   8.040000  68.51269   0.49698  62.57166  -0.34220  62.59689   0.64033  68.53792   1.47952
      14  65.58003   1.55160         26.70923   8.040000  68.53792   1.47952  62.59689   0.64033  62.62214   1.62368  68.56317   2.46287
      14  65.60529   2.53536         26.73149   8.040000  68.56317   2.46287  62.62214   1.62368  62.64742   2.60785  68.58844   3.44704
      14  65.63057   3.51994         26.75378   8.040000  68.58844   3.44704  62.64742   2.60785  62.67271   3.59284  68.61373   4.43203
      14  65.65588   4.50534         26.77608   8.040000  68.61373   4.43203  62.67271   3.59284  62.69802   4.57866  68.63905   5.41784
      14  65.68120   5.49157         26.79841   8.040000  68.63905   5.41784  62.69802   4.57866  62.72336   5.56529  68.66438   6.40448
      14  65.70655   6.47861         26.82075   8.040000  68.66438   6.40448  62.72336   5.56529  62.74871   6.55275  68.68974   7.39194
      14  65.73192   7.46648         26.84311   8.040000  68.68974   7.39194  62.74871   6.55275  62.77409   7.54103  68.71512   8.38022
      14  65.75730   8.45518         26.86549   8.040000  68.71512   8.38022  62.77409   7.54103  62.79949   8.53013  68.74052   9.36932
      14  65.78271   9.44469         26.88788   8.040000  68.74052   9.36932  62.79949   8.53013  62.82491   9.52006  68.76594  10.35925
      14  65.80814  10.43503         26.91030   8.040000  68.76594  10.35925  62.82491   9.52006  62.85035  10.51082  68.79138  11.35000
      14  65.83360  11.42620         26.93273   8.040000  68.79138  11.35000  62.85035  10.51082  62.87582  11.50240  68.81684  12.34159
      14  65.85907  12.41820         26.95519   8.040000  68.81684  12.34159  62.87582  11.50240  62.90130  12.49481  68.84232  13.33399
      14  65.88456  13.41102         26.97766   8.040000  68.84232  13.33399  62.90130  12.49481  62.92680  13.48804  68.86783  14.32723
      14  65.91008  14.40466         27.00015   8.040000  68.86783  14.32723  62.92680  13.48804  62.95233  14.48210  68.89335  15.32129
      14  65.93562  15.39914         27.02266   8.040000  68.89335  15.32129  62.95233  14.48210  62.97788  15.47699  68.91890  16.31618
      14  65.96117  16.39445         27.04519   8.040000  68.91890  16.31618  62.97788  15.47699  63.00345  16.47271  68.94447  17.31190
      14  65.98675  17.39058         27.06773   8.040000  68.94447  17.31190  63.00345  16.47271  63.02904  17.46927  68.97006  18.30845
      14  66.01235  18.38755         27.09030   8.040000  68.97006  18.30845  63.02904  17.46927  63.05465  18.46665  68.99567  19.30583
      14  66.03798  19.38535         27.11288   8.040000  68.99567  19.30583  63.05465  18.46665  63.08028  19.46486  69.02130  20.30405
      14  66.06362  20.38398         27.13549   8.040000  69.02130  20.30405  63.08028  19.46486  63.10593  20.46391  69.04696  21.30309
      14  66.08928  21.38344         27.15811   8.040000  69.04696  21.30309  63.10593  20.46391  63.13161  21.46378  69.07263  22.30297
      14  66.11497  22.38373         27.18075   8.040000  69.07263  22.30297  63.13161  21.46378  63.15731  22.46450  69.09833  23.30368
      14  66.14068  23.38486         27.20341   8.040000  69.09833  23.30368  63.15731  22.46450  63.18302  23.46604  69.12405  24.30523
      14  66.16641  24.38683         27.22609   8.040000  69.12405  24.30523  63.18302  23.46604  63.20876  24.46842  69.14979  25.30761
      14  66.19216  25.38962         27.24879   8.040000  69.14979  25.30761  63.20876  24.46842  63.23453  25.47164  69.17555  26.31083
      14  66.21793  26.39326         27.27151   8.040000  69.17555  26.31083  63.23453  25.47164  63.26031  26.47569  69.20133  27.31488
      14  66.24372  27.39773         27.29424   8.040000  69.20133  27.31488  63.26031  26.47569  63.28611  27.48058  69.22714  28.31977
      14  66.26954  28.40304         27.31700   8.040000  69.22714  28.31977  63.28611  27.48058  63.31194  28.48631  69.25296  29.32550
      14  66.29537  29.40919         27.33977   8.040000  69.25296  29.32550  63.31194  28.48631  63.33779  29.49288  69.27881  30.33206
      14  66.32123  30.41617         27.36256   8.040000  69.27881  30.33206  63.33779  29.49288  63.36365  30.50028  69.30468  31.33947
      14  66.34711  31.42400         27.38537   8.040000  69.30468  31.33947  63.36365  30.50028  63.38954  31.50853  69.33057  32.34771
      14  66.37301  32.43266         27.40820   8.040000  69.33057  32.34771  63.38954  31.50853  63.41546  32.51761  69.35648  33.35680
      14  66.39894  33.44217         27.43105   8.040000  69.35648  33.35680  63.41546  32.51761  63.44139  33.52754  69.38241  34.36673
      14  66.42488  34.45252         27.45392   8.040000  69.38241  34.36673  63.44139  33.52754  63.46735  34.53831  69.40837  35.37750
      14  66.45085  35.46371         27.47681   8.040000  69.40837  35.37750  63.46735  34.53831  63.49332  35.54992  69.43435  36.38911
      14  66.47683  36.47574         27.49972   8.040000  69.43435  36.38911  63.49332  35.54992  63.51932  36.56238  69.46034  37.40156
      14  66.50284  37.48862         27.52264   8.040000  69.46034  37.40156  63.51932  36.56238  63.54534  37.57568  69.48636  38.41486
      14  66.52887  38.50234         27.54559   8.040000  69.48636  38.41486  63.54534  37.57568  63.57138  38.58982  69.51241  39.42901
      14  66.55493  39.51691         27.56855   8.040000  69.51241  39.42901  63.57138  38.58982  63.59745  39.60481  69.53847  40.44400
      14  66.58100  40.53232         27.59154   8.040000  69.53847  40.44400  63.59745  39.60481  63.62353  40.62065  69.56456  41.45983
      14  66.60710  41.54858         27.61454   8.040000  69.56456  41.45983  63.62353  40.62065  63.64964  41.63733  69.59066  42.47651
      14  66.63321  42.56569         27.63756   8.040000  69.59066  42.47651  63.64964  41.63733  63.67577  42.65486  69.61679  43.49405
      14  66.65935  43.58364         27.66060   8.040000  69.61679  43.49405  63.67577  42.65486  63.70192  43.67324  69.64294  44.51242
      14  66.68552  44.60244         27.68366   8.040000  69.64294  44.51242  63.70192  43.67324  63.72809  44.69246  69.66911  45.53165
      14  66.71170  45.62210         27.70674   8.040000  69.66911  45.53165  63.72809  44.69246  63.75428  45.71254  69.69531  46.55173
      14  66.73790  46.64260         27.72984   8.040000  69.69531  46.55173  63.75428  45.71254  63.78050  46.73347  69.72152  47.57266
      14  66.76413  47.66395         27.75296   8.040000  69.72152  47.57266  63.78050  46.73347  63.80674  47.75525  69.74776  48.59443
      14  66.79038  48.68616         27.77609   8.040000  69.74776  48.59443  63.80674  47.75525  63.83300  48.77788  69.77402  49.61707
      14  66.81665  49.70921         27.79925   8.040000  69.77402  49.61707  63.83300  48.77788  63.85928  49.80136  69.80030  50.64055
      14  66.84294  50.73312         27.82243   8.040000  69.80030  50.64055  63.85928  49.80136  63.88558  50.82570  69.82661  51.66489
      14  66.86926  51.75789         27.84562   8.040000  69.82661  51.66489  63.88558  50.82570  63.91191  51.85089  69.85293  52.69008
      14  66.89559  52.78350         27.86884   8.040000  69.85293  52.69008  63.91191  51.85089  63.93826  52.87693  69.87928  53.71612
      14  66.92195  53.80998         27.89207   8.040000  69.87928  53.71612  63.93826  52.87693  63.96463  53.90383  69.90565  54.74302
      14  66.94833  54.83731         27.91532   8.040000  69.90565  54.74302  63.96463  53.90383  63.99102  54.93159  69.93204  55.77078
      14  66.97474  55.86549         27.93860   8.040000  69.93204  55.77078  63.99102  54.93159  64.01743  55.96020  69.95845  56.79939
      14  67.00116  56.89453         27.96189   8.040000  69.95845  56.79939  64.01743  55.96020  64.04387  56.98968  69.98489  57.82886
      14  67.02761  57.92443         27.98520   8.040000  69.98489  57.82886  64.04387  56.98968  64.07032  58.02001  70.01135  58.85919
      14  67.05407  58.95519         28.00853   8.040000  70.01135  58.85919  64.07032  58.02001  64.09680  59.05119  70.03783  59.89038
      14  67.08056  59.98681         28.03188   8.040000  70.03783  59.89038  64.09680  59.05119  64.12330  60.08324  70.06433  60.92243
      14  67.10708  61.01929         28.05525   8.040000  70.06433  60.92243  64.12330  60.08324  64.14983  61.11615  70.09085  61.95534
      14  67.13361  62.05263         28.07864   8.040000  70.09085  61.95534  64.14983  61.11615  64.17637  62.14992  70.11740  62.98911
      14  67.16017  63.08683         28.10205   8.040000  70.11740  62.98911  64.17637  62.14992  64.20294  63.18455  70.14396  64.02374
      14  67.18675  64.12189         28.12547   8.040000  70.14396  64.02374  64.20294  63.18455  64.22953  64.22004  70.17055  65.05923
      14  67.21335  65.15782         28.14892   8.040000  70.17055  65.05923  64.22953  64.22004  64.25614  65.25640  70.19717  66.09559
      14  67.23997  66.19460         28.17239   8.040000  70.19717  66.09559  64.25614  65.25640  64.28278  66.29362  70.22380  67.13281
      14  67.26662  67.23226         28.19588   8.040000  70.22380  67.13281  64.28278  66.29362  64.30943  67.33171  70.25046  68.17089
      14  67.29329  68.27078         28.21938   8.040000  70.25046  68.17089  64.30943  67.33171  64.33611  68.37066  70.27714  69.20985
      14  67.31998  69.31016         28.24291   8.040000  70.27714  69.20985  64.33611  68.37066  64.36281  69.41048  70.30384  70.24966
      14  67.34669  70.35041         28.26645   8.040000  70.30384  70.24966  64.36281  69.41048  64.38954  70.45116  70.33056  71.29035
      14  67.37342  71.39153         28.29002   8.040000  70.33056  71.29035  64.38954  70.45116  64.41628  71.49271  70.35731  72.33190
      14  67.40018  72.43352         28.31360   8.040000  70.35731  72.33190  64.41628  71.49271  64.44305  72.53513  70.38407  73.37432
      14  67.42696  73.47637         28.33721   8.040000  70.38407  73.37432  64.44305  72.53513  64.46984  73.57842  70.41087  74.41761
      14  67.45376  74.52010         28.36083   8.040000  70.41087  74.41761  64.46984  73.57842  64.49665  74.62258  70.43768  75.46177
      14  67.48058  75.56469         28.38448   8.040000  70.43768  75.46177  64.49665  74.62258  64.52349  75.66761  70.46451  76.50680
      14  67.50743  76.61015         28.40814   8.040000  70.46451  76.50680  64.52349  75.66761  64.55035  76.71351  70.49137  77.55270
      14  67.53430  77.65649         28.43182   8.040000  70.49137  77.55270  64.55035  76.71351  64.57723  77.76028  70.51825  78.59947
      14  67.56119  78.70370         28.45553   8.040000  70.51825  78.59947  64.57723  77.76028  64.60413  78.80793  70.54515  79.64712
      14  67.58810  79.75178         28.47925   8.040000  70.54515  79.64712  64.60413  78.80793  64.63105  79.85645  70.57208  80.69564
      14  67.61504  80.80074         28.50299   8.040000  70.57208  80.69564  64.63105  79.85645  64.65800  80.90584  70.59902  81.74503
      14  67.64200  81.85057         28.52675   8.040000  70.59902  81.74503  64.65800  80.90584  64.68497  81.95611  70.62599  82.79530
      14  67.66898  82.90127         28.55054   8.040000  70.62599  82.79530  64.68497  81.95611  64.71196  83.00725  70.65298  83.84644
      14  67.69598  83.95286         28.57434   8.040000  70.65298  83.84644  64.71196  83.00725  64.73897  84.05927  70.68000  84.89846
      14  67.72301  85.00531         28.59816   8.040000  70.68000  84.89846  64.73897  84.05927  64.76601  85.11217  70.70704  85.95136
      14  67.75005  86.05865         28.62200   8.040000  70.70704  85.95136  64.76601  85.11217  64.79307  86.16594  70.73410  87.00513
      14  67.77712  87.11286         28.64586   8.040000  70.73410  87.00513  64.79307  86.16594  64.82015  87.22060  70.76118  88.05978
      14  67.80422  88.16796         28.66975   8.040000  70.76118  88.05978  64.82015  87.22060  64.84726  88.27613  70.78828  89.11532
      14  67.83133  89.22393         28.69365   8.040000  70.78828  89.11532  64.84726  88.27613  64.87438  89.33254  70.81541  90.17173
      14  67.85847  90.28078         28.71757   8.040000  70.81541  90.17173  64.87438  89.33254  64.90153  90.38983  70.84256  91.22902
      14  67.88563  91.33852         28.74151   8.040000  70.84256  91.22902  64.90153  90.38983  64.92871  91.44801  70.86973  92.28720
      14  67.91282  92.39713         28.76547   8.040000  70.86973  92.28720  64.92871  91.44801  64.95590  92.50707  70.89693  93.34625
      14  67.94002  93.45663         28.78945   8.040000  70.89693  93.34625  64.95590  92.50707  64.98312  93.56701  70.92414  94.40619
      14  67.96725  94.51701         28.81345   8.040000  70.92414  94.40619  64.98312  93.56701  65.01036  94.62783  70.95138  95.46702
      14  67.99450  95.57828         28.83747   8.040000  70.95138  95.46702  65.01036  94.62783  65.03762  95.68954  70.97865  96.52872
      14  68.02178  96.64043         28.86152   8.040000  70.97865  96.52872  65.03762  95.68954  65.06491  96.75213  71.00593  97.59132
      14  68.04908  97.70346         28.88558   8.040000  71.00593  97.59132  65.06491  96.75213  65.09222  97.81561  71.03324  98.65479
      14  68.07640  98.76738         28.90966   8.040000  71.03324  98.65479  65.09222  97.81561  65.11955  98.87997  71.06057  99.71916
      14  68.10374  99.83219         28.93376   8.040000  71.06057  99.71916  65.11955  98.87997  65.14690  99.94523  71.08793 100.78441
      14  68.13110 100.89789         28.95788   8.040000  71.08793 100.78441  65.14690  99.94523  65.17428 101.01137  71.11530 101.85055
      14  68.15849 101.96447         28.98202   8.040000  71.11530 101.85055  65.17428 101.01137  65.20168 102.07840  71.14270 102.91758
      14  68.18590 103.03195         29.00618   8.040000  71.14270 102.91758  65.20168 102.07840  65.22910 103.14632  71.17013 103.98550
      14  68.21334 104.10031         29.03037   8.040000  71.17013 103.98550  65.22910 103.14632  65.25655 104.21512  71.19757 105.05431
      14  68.24080 105.16957         29.05457   8.040000  71.19757 105.05431  65.25655 104.21512  65.28402 105.28483  71.22504 106.12401
      14  68.26827 106.23971         29.07879   8.040000  71.22504 106.12401  65.28402 105.28483  65.31151 106.35542  71.25253 107.19460
      14  68.29578 107.31075         29.10303   8.040000  71.25253 107.19460  65.31151 106.35542  65.33902 107.42690  71.28005 108.26609
      14  68.32330 108.38268         29.12730   8.040000  71.28005 108.26609  65.33902 107.42690  65.36656 108.49928  71.30758 109.33847
      14  68.35085 109.45551         29.15158   8.040000  71.30758 109.33847  65.36656 108.49928  65.39412 109.57255  71.33514 110.41174
      14  68.37842 110.52923         29.17588   8.040000  71.33514 110.41174  65.39412 109.57255  65.42170 110.64672  71.36273 111.48591
      14  68.40602 111.60384         29.20021   8.040000  71.36273 111.48591  65.42170 110.64672  65.44931 111.72178  71.39033 112.56097
      14  68.43364 112.67935         29.22455   8.040000  71.39033 112.56097  65.44931 111.72178  65.47694 112.79774  71.41796 113.63693
      14  68.46128 113.75576         29.24891   8.040000  71.41796 113.63693  65.47694 112.79774  65.50459 113.87460  71.44561 114.71378
      14  68.48894 114.83307         29.27330   8.040000  71.44561 114.71378  65.50459 113.87460  65.53227 114.95235  71.47329 115.79154
      14  68.51663 115.91127         29.29770   8.040000  71.47329 115.79154  65.53227 114.95235  65.55996 116.03100  71.50099 116.87019
      14  68.54434 116.99037         29.32213   8.040000  71.50099 116.87019  65.55996 116.03100  65.58769 117.11055  71.52871 117.94974
      14  68.57207 118.07037         29.34657   8.040000  71.52871 117.94974  65.58769 117.11055  65.61543 118.19100  71.55645 119.03019
      14  68.59983 119.15127         29.37104   8.040000  71.55645 119.03019  65.61543 118.19100  65.64320 119.27236  71.58422 120.11154
      14  68.62760 120.23308         29.39552   8.040000  71.58422 120.11154  65.64320 119.27236  65.67099 120.35461  71.61201 121.19380
      14  68.65541 121.31578         29.42003   8.040000  71.61201 121.19380  65.67099 120.35461  65.69880 121.43776  71.63983 122.27695
      14  68.68323 122.39939         29.44456   8.040000  71.63983 122.27695  65.69880 121.43776  65.72664 122.52182  71.66766 123.36101
      14  68.71108 123.48390         29.46910   8.040000  71.66766 123.36101  65.72664 122.52182  65.75450 123.60679  71.69552 124.44597
      14  68.73895 124.56931         29.49367   8.040000  71.69552 124.44597  65.75450 123.60679  65.78238 124.69265  71.72341 125.53184
      14  68.76685 125.65563         29.51826   8.040000  71.72341 125.53184  65.78238 124.69265  65.81029 125.77943  71.75131 126.61861
      14  68.79477 126.74286         29.54287   8.040000  71.75131 126.61861  65.81029 125.77943  65.83822 126.86710  71.77924 127.70629
      14  68.82271 127.83099         29.56750   8.040000  71.77924 127.70629  65.83822 126.86710  65.86617 127.95569  71.80720 128.79488
      13  80.08545   0.08357         28.76547   9.250000  83.02766   0.03017  77.10568  -0.93428  77.14324   0.13697  83.06522   1.10143
      13  80.12303   1.15527         28.78945   9.250000  83.06522   1.10143  77.14324   0.13697  77.18083   1.20912  83.10281   2.17357
      13  80.16063   2.22787         28.81345   9.250000  83.10281   2.17357  77.18083   1.20912  77.21845   2.28216  83.14043   3.24661
      13  80.19827   3.30135         28.83747   9.250000  83.14043   3.24661  77.21845   2.28216  77.25611   3.35609  83.17809   4.32055
      13  80.23594   4.37574         28.86152   9.250000  83.17809   4.32055  77.25611   3.35609  77.29379   4.43093  83.21577   5.39538
      13  80.27364   5.45102         28.88558   9.250000  83.21577   5.39538  77.29379   4.43093  77.33151   5.50665  83.25349   6.47111
      13  80.31137   6.52719         28.90966   9.250000  83.25349   6.47111  77.33151   5.50665  77.36926   6.58328  83.29123   7.54773
      13  80.34913   7.60426         28.93376   9.250000  83.29123   7.54773  77.36926   6.58328  77.40704   7.66080  83.32901   8.62525
      13  80.38693   8.68223         28.95788   9.250000  83.32901   8.62525  77.40704   7.66080  77.44485   8.73922  83.36682   9.70367
      13  80.42476   9.76110         28.98202   9.250000  83.36682   9.70367  77.44485   8.73922  77.48269   9.81854  83.40467  10.78299
      13  80.46261  10.84087         29.00618   9.250000  83.40467  10.78299  77.48269   9.81854  77.52056  10.89875  83.44254  11.86321
      13  80.50050  11.92154         29.03037   9.250000  83.44254  11.86321  77.52056  10.89875  77.55847  11.97987  83.48044  12.94433
      13  80.53842  13.00311         29.05457   9.250000  83.48044  12.94433  77.55847  11.97987  77.59640  13.06189  83.51838  14.02635
      13  80.57638  14.08558         29.07879   9.250000  83.51838  14.02635  77.59640  13.06189  77.63437  14.14482  83.55635  15.10927
      13  80.61436  15.16896         29.10303   9.250000  83.55635  15.10927  77.63437  14.14482  77.67237  15.22864  83.59435  16.19310
      13  80.65238  16.25323         29.12730   9.250000  83.59435  16.19310  77.67237  15.22864  77.71040  16.31337  83.63238  17.27782
      13  80.69042  17.33841         29.15158   9.250000  83.63238  17.27782  77.71040  16.31337  77.74847  17.39900  83.67044  18.36346
      13  80.72850  18.42450         29.17588   9.250000  83.67044  18.36346  77.74847  17.39900  77.78656  18.48554  83.70854  19.45000
      13  80.76661  19.51149         29.20021   9.250000  83.70854  19.45000  77.78656  18.48554  77.82469  19.57298  83.74667  20.53744
      13  80.80476  20.59939         29.22455   9.250000  83.74667  20.53744  77.82469  19.57298  77.86285  20.66133  83.78482  21.62579
      13  80.84293  21.68819         29.24891   9.250000  83.78482  21.62579  77.86285  20.66133  77.90104  21.75059  83.82302  22.71505
      13  80.88114  22.77790         29.27330   9.250000  83.82302  22.71505  77.90104  21.75059  77.93926  22.84076  83.86124  23.80521
      13  80.91938  23.86852         29.29770   9.250000  83.86124  23.80521  77.93926  22.84076  77.97751  23.93183  83.89949  24.89629
      13  80.95765  24.96005         29.32213   9.250000  83.89949  24.89629  77.97751  23.93183  78.01580  25.02382  83.93778  25.98827
      13  80.99595  26.05249         29.34657   9.250000  83.93778  25.98827  78.01580  25.02382  78.05412  26.11671  83.97610  27.08117
      13  81.03428  27.14584         29.37104   9.250000  83.97610  27.08117  78.05412  26.11671  78.09247  27.21052  84.01445  28.17497
      13  81.07265  28.24010         29.39552   9.250000  84.01445  28.17497  78.09247  27.21052  78.13085  28.30524  84.05283  29.26969
      13  81.11105  29.33528         29.42003   9.250000  84.05283  29.26969  78.13085  28.30524  78.16926  29.40087  84.09124  30.36532
      13  81.14948  30.43137         29.44456   9.250000  84.09124  30.36532  78.16926  29.40087  78.20771  30.49741  84.12969  31.46186
      13  81.18794  31.52837         29.46910   9.250000  84.12969  31.46186  78.20771  30.49741  78.24619  31.59487  84.16817  32.55932
      13  81.22643  32.62628         29.49367   9.250000  84.16817  32.55932  78.24619  31.59487  78.28470  32.69324  84.20668  33.65770
      13  81.26496  33.72511         29.51826   9.250000  84.20668  33.65770  78.28470  32.69324  78.32324  33.79253  84.24522  34.75698
      13  81.30352  34.82486         29.54287   9.250000  84.24522  34.75698  78.32324  33.79253  78.36181  34.89273  84.28379  35.85719
      13  81.34211  35.92552         29.56750   9.250000  84.28379  35.85719  78.36181  34.89273  78.40042  35.99386  84.32240  36.95831
      13  81.38073  37.02710         29.59215   9.250000  84.32240  36.95831  78.40042  35.99386  78.43906  37.09590  84.36104  38.06035
      13  81.41938  38.12960         29.61682   9.250000  84.36104  38.06035  78.43906  37.09590  78.47773  38.19885  84.39971  39.16331
      13  81.45807  39.23302         29.64151   9.250000  84.39971  39.16331  78.47773  38.19885  78.51643  39.30273  84.43841  40.26719
      13  81.49679  40.33736         29.66622   9.250000  84.43841  40.26719  78.51643  39.30273  78.55517  40.40753  84.47715  41.37199
      13  81.53554  41.44262         29.69095   9.250000  84.47715  41.37199  78.55517  40.40753  78.59394  41.51325  84.51591  42.47771
      13  81.57432  42.54880         29.71571   9.250000  84.51591  42.47771  78.59394  41.51325  78.63274  42.61989  84.55471  43.58435
      13  81.61314  43.65590         29.74048   9.250000  84.55471  43.58435  78.63274  42.61989  78.67157  43.72746  84.59355  44.69191
      13  81.65199  44.76393         29.76527   9.250000  84.59355  44.69191  78.67157  43.72746  78.71043  44.83594  84.63241  45.80040
      13  81.69087  45.87288         29.79009   9.250000  84.63241  45.80040  78.71043  44.83594  78.74933  45.94536  84.67131  46.90981
      13  81.72978  46.98275         29.81492   9.250000  84.67131  46.90981  78.74933  45.94536  78.78826  47.05569  84.71024  48.02015
      13  81.76873  48.09355         29.83978   9.250000  84.71024  48.02015  78.78826  47.05569  78.82722  48.16695  84.74920  49.13141
      13  81.80771  49.20528         29.86466   9.250000  84.74920  49.13141  78.82722  48.16695  78.86622  49.27914  84.78819  50.24360
      13  81.84672  50.31793         29.88955   9.250000  84.78819  50.24360  78.86622  49.27914  78.90524  50.39226  84.82722  51.35671
      13  81.88576  51.43151         29.91447   9.250000  84.82722  51.35671  78.90524  50.39226  78.94430  51.50630  84.86628  52.47076
      13  81.92484  52.54602         29.93941   9.250000  84.86628  52.47076  78.94430  51.50630  78.98339  52.62127  84.90537  53.58573
      13  81.96394  53.66145         29.96437   9.250000  84.90537  53.58573  78.98339  52.62127  79.02252  53.73718  84.94450  54.70163
      13  82.00309  54.77782         29.98935   9.250000  84.94450  54.70163  79.02252  53.73718  79.06168  54.85401  84.98365  55.81846
      13  82.04226  55.89512         30.01435   9.250000  84.98365  55.81846  79.06168  54.85401  79.10087  55.97177  85.02284  56.93623
      13  82.08147  57.01335         30.03938   9.250000  85.02284  56.93623  79.10087  55.97177  79.14009  57.09047  85.06207  58.05492
      13  82.12070  58.13251         30.06442   9.250000  85.06207  58.05492  79.14009  57.09047  79.17934  58.21009  85.10132  59.17455
      13  82.15998  59.25260         30.08948   9.250000  85.10132  59.17455  79.17934  58.21009  79.21863  59.33065  85.14061  60.29511
      13  82.19928  60.37363         30.11457   9.250000  85.14061  60.29511  79.21863  59.33065  79.25795  60.45215  85.17993  61.41661
      13  82.23862  61.49559         30.13968   9.250000  85.17993  61.41661  79.25795  60.45215  79.29731  61.57458  85.21928  62.53904
      13  82.27799  62.61849         30.16480   9.250000  85.21928  62.53904  79.29731  61.57458  79.33669  62.69795  85.25867  63.66240
      13  82.31739  63.74233         30.18995   9.250000  85.25867  63.66240  79.33669  62.69795  79.37611  63.82225  85.29809  64.78670
      13  82.35683  64.86710         30.21512   9.250000  85.29809  64.78670  79.37611  63.82225  79.41556  64.94749  85.33754  65.91194
      13  82.39629  65.99281         30.24031   9.250000  85.33754  65.91194  79.41556  64.94749  79.45505  66.07367  85.37703  67.03812
      13  82.43580  67.11945         30.26552   9.250000  85.37703  67.03812  79.45505  66.07367  79.49457  67.20078  85.41654  68.16524
      13  82.47533  68.24704         30.29075   9.250000  85.41654  68.16524  79.49457  67.20078  79.53412  68.32884  85.45609  69.29330
      13  82.51490  69.37557         30.31600   9.250000  85.45609  69.29330  79.53412  68.32884  79.57370  69.45784  85.49568  70.42229
      13  82.55450  70.50503         30.34128   9.250000  85.49568  70.42229  79.57370  69.45784  79.61332  70.58777  85.53529  71.55223
      13  82.59413  71.63544         30.36657   9.250000  85.53529  71.55223  79.61332  70.58777  79.65297  71.71865  85.57494  72.68311
      13  82.63380  72.76679         30.39189   9.250000  85.57494  72.68311  79.65297  71.71865  79.69265  72.85048  85.61463  73.81493
      13  82.67350  73.89909         30.41723   9.250000  85.61463  73.81493  79.69265  72.85048  79.73237  73.98324  85.65434  74.94770
      13  82.71323  75.03233         30.44258   9.250000  85.65434  74.94770  79.73237  73.98324  79.77211  75.11695  85.69409  76.08141
      13  82.75299  76.16651         30.46796   9.250000  85.69409  76.08141  79.77211  75.11695  79.81190  76.25161  85.73387  77.21607
      13  82.79279  77.30164         30.49336   9.250000  85.73387  77.21607  79.81190  76.25161  79.85171  77.38721  85.77369  78.35167
      13  82.83263  78.43771         30.51879   9.250000  85.77369  78.35167  79.85171  77.38721  79.89156  78.52376  85.81354  79.48822
      13  82.87249  79.57474         30.54423   9.250000  85.81354  79.48822  79.89156  78.52376  79.93144  79.66126  85.85342  80.62571
      13  82.91239  80.71271         30.56969   9.250000  85.85342  80.62571  79.93144  79.66126  79.97136  80.79970  85.89334  81.76416
      13  82.95232  81.85163         30.59518   9.250000  85.89334  81.76416  79.97136  80.79970  80.01131  81.93909  85.93328  82.90355
      13  82.99229  82.99149         30.62068   9.250000  85.93328  82.90355  80.01131  81.93909  80.05129  83.07944  85.97327  84.04389
      13  83.03228  84.13231         30.64621   9.250000  85.97327  84.04389  80.05129  83.07944  80.09130  84.22073  86.01328  85.18519
      13  83.07231  85.27408         30.67176   9.250000  86.01328  85.18519  80.09130  84.22073  80.13135  85.36298  86.05333  86.32743
      13  83.11238  86.41680         30.69733   9.250000  86.05333  86.32743  80.13135  85.36298  80.17143  86.50618  86.09341  87.47063
      13  83.15248  87.56048         30.72292   9.250000  86.09341  87.47063  80.17143  86.50618  80.21155  87.65033  86.13352  88.61478
      13  83.19261  88.70511         30.74854   9.250000  86.13352  88.61478  80.21155  87.65033  80.25170  88.79543  86.17367  89.75989
      13  83.23278  89.85069         30.77417   9.250000  86.17367  89.75989  80.25170  88.79543  80.29188  89.94149  86.21386  90.90595
      13  83.27297  90.99723         30.79983   9.250000  86.21386  90.90595  80.29188  89.94149  80.33209  91.08850  86.25407  92.05296
      13  83.31321  92.14472         30.82550   9.250000  86.25407  92.05296  80.33209  91.08850  80.37234  92.23648  86.29432  93.20093
      13  83.35347  93.29317         30.85120   9.250000  86.29432  93.20093  80.37234  92.23648  80.41262  93.38540  86.33460  94.34986
      13  83.39377  94.44257         30.87692   9.250000  86.33460  94.34986  80.41262  93.38540  80.45294  94.53529  86.37492  95.49974
      13  83.43410  95.59294         30.90266   9.250000  86.37492  95.49974  80.45294  94.53529  80.49329  95.68613  86.41527  96.65059
      13  83.47447  96.74426         30.92843   9.250000  86.41527  96.65059  80.49329  95.68613  80.53367  96.83794  86.45565  97.80239
      13  83.51487  97.89655         30.95421   9.250000  86.45565  97.80239  80.53367  96.83794  80.57409  97.99070  86.49607  98.95516
      13  83.55531  99.04979         30.98002   9.250000  86.49607  98.95516  80.57409  97.99070  80.61454  99.14443  86.53652 100.10888
      13  83.59577 100.20400         31.00585   9.250000  86.53652 100.10888  80.61454  99.14443  80.65503 100.29911  86.57700 101.26357
      13  83.63627 101.35917         31.03169   9.250000  86.57700 101.26357  80.65503 100.29911  80.69554 101.45476  86.61752 102.41922
      13  83.67681 102.51530         31.05756   9.250000  86.61752 102.41922  80.69554 101.45476  80.73610 102.61138  86.65807 103.57583
      13  83.71738 103.67239         31.08346   9.250000  86.65807 103.57583  80.73610 102.61138  80.77668 103.76895  86.69866 104.73341
      13  83.75798 104.83045         31.10937   9.250000  86.69866 104.73341  80.77668 103.76895  80.81730 104.92750  86.73928 105.89195
      13  83.79862 105.98948         31.13531   9.250000  86.73928 105.89195  80.81730 104.92750  80.85796 106.08700  86.77993 107.05146
      13  83.83929 107.14947         31.16126   9.250000  86.77993 107.05146  80.85796 106.08700  80.89864 107.24748  86.82062 108.21193
      13  83.87999 108.31043         31.18724   9.250000  86.82062 108.21193  80.89864 107.24748  80.93936 108.40892  86.86134 109.37338
      13  83.92073 109.47235         31.21324   9.250000  86.86134 109.37338  80.93936 108.40892  80.98012 109.57133  86.90210 110.53579
      13  83.96150 110.63525         31.23926   9.250000  86.90210 110.53579  80.98012 109.57133  81.02091 110.73471  86.94289 111.69917
      13  84.00231 111.79911         31.26531   9.250000  86.94289 111.69917  81.02091 110.73471  81.06173 111.89906  86.98371 112.86352
      13  84.04315 112.96395         31.29137   9.250000  86.98371 112.86352  81.06173 111.89906  81.10259 113.06438  87.02457 114.02884
      13  84.08402 114.12975         31.31746   9.250000  87.02457 114.02884  81.10259 113.06438  81.14348 114.23067  87.06546 115.19513
      13  84.12493 115.29653         31.34357   9.250000  87.06546 115.19513  81.14348 114.23067  81.18441 115.39794  87.10638 116.36239
      13  84.16587 116.46428         31.36970   9.250000  87.10638 116.36239  81.18441 115.39794  81.22537 116.56617  87.14734 117.53063
      13  84.20685 117.63301         31.39585   9.250000  87.14734 117.53063  81.22537 116.56617  81.26636 117.73538  87.18834 118.69984
      13  84.24786 118.80270         31.42203   9.250000  87.18834 118.69984  81.26636 117.73538  81.30739 118.90557  87.22937 119.87003
      13  84.28891 119.97338         31.44822   9.250000  87.22937 119.87003  81.30739 118.90557  81.34845 120.07673  87.27043 121.04119
      13  84.32999 121.14503         31.47444   9.250000  87.27043 121.04119  81.34845 120.07673  81.38955 121.24887  87.31152 122.21332
      13  84.37110 122.31765         31.50068   9.250000  87.31152 122.21332  81.38955 121.24887  81.43068 122.42198  87.35265 123.38644
      13  84.41225 123.49126         31.52694   9.250000  87.35265 123.38644  81.43068 122.42198  81.47184 123.59608  87.39382 124.56053
      13  84.45343 124.66584         31.55322   9.250000  87.39382 124.56053  81.47184 123.59608  81.51304 124.77115  87.43502 125.73560
      13  84.49465 125.84140         31.57953   9.250000  87.43502 125.73560  81.51304 124.77115  81.55427 125.94720  87.47625 126.91165
      13  84.53590 127.01794         31.60586   9.250000  87.47625 126.91165  81.55427 125.94720  81.59554 127.12423  87.51752 128.08869
      12  96.24831   0.02054         30.92843  10.490000  99.17212   0.06658  93.27240  -1.02581  93.32449  -0.02550  99.22421   1.06689
      12  96.30042   1.02127         30.95421  10.490000  99.22421   1.06689  93.32449  -0.02550  93.37662   0.97565  99.27634   2.06803
      12  96.35257   2.02283         30.98002  10.490000  99.27634   2.06803  93.37662   0.97565  93.42880   1.97762  99.32852   3.07001
      12  96.40477   3.02522         31.00585  10.490000  99.32852   3.07001  93.42880   1.97762  93.48102   2.98044  99.38074   4.07282
      12  96.45701   4.02845         31.03169  10.490000  99.38074   4.07282  93.48102   2.98044  93.53328   3.98408  99.43300   5.07647
      12  96.50930   5.03252         31.05756  10.490000  99.43300   5.07647  93.53328   3.98408  93.58559   4.98857  99.48531   6.08095
      12  96.56162   6.03742         31.08346  10.490000  99.48531   6.08095  93.58559   4.98857  93.63794   5.99389  99.53766   7.08628
      12  96.61400   7.04317         31.10937  10.490000  99.53766   7.08628  93.63794   5.99389  93.69033   7.00005  99.59005   8.09244
      12  96.66641   8.04975         31.13531  10.490000  99.59005   8.09244  93.69033   7.00005  93.74277   8.00705  99.64249   9.09944
      12  96.71887   9.05717         31.16126  10.490000  99.64249   9.09944  93.74277   8.00705  93.79525   9.01489  99.69497  10.10728
      12  96.77137  10.06542         31.18724  10.490000  99.69497  10.10728  93.79525   9.01489  93.84778  10.02357  99.74750  11.11596
      12  96.82392  11.07452         31.21324  10.490000  99.74750  11.11596  93.84778  10.02357  93.90035  11.03309  99.80007  12.12548
      12  96.87651  12.08447         31.23926  10.490000  99.80007  12.12548  93.90035  11.03309  93.95296  12.04346  99.85268  13.13584
      12  96.92915  13.09525         31.26531  10.490000  99.85268  13.13584  93.95296  12.04346  94.00562  13.05466  99.90534  14.14704
      12  96.98183  14.10687         31.29137  10.490000  99.90534  14.14704  94.00562  13.05466  94.05832  14.06671  99.95804  15.15909
      12  97.03455  15.11934         31.31746  10.490000  99.95804  15.15909  94.05832  14.06671  94.11106  15.07960 100.01078  16.17198
      12  97.08731  16.13266         31.34357  10.490000 100.01078  16.17198  94.11106  15.07960  94.16385  16.09333 100.06357  17.18572
      12  97.14012  17.14682         31.36970  10.490000 100.06357  17.18572  94.16385  16.09333  94.21668  17.10791 100.11640  18.20030
      12  97.19298  18.16182         31.39585  10.490000 100.11640  18.20030  94.21668  17.10791  94.26956  18.12334 100.16928  19.21572
      12  97.24588  19.17767         31.42203  10.490000 100.16928  19.21572  94.26956  18.12334  94.32248  19.13961 100.22220  20.23200
      12  97.29882  20.19437         31.44822  10.490000 100.22220  20.23200  94.32248  19.13961  94.37544  20.15673 100.27516  21.24912
      12  97.35181  21.21191         31.47444  10.490000 100.27516  21.24912  94.37544  20.15673  94.42845  21.17470 100.32817  22.26709
      12  97.40484  22.23030         31.50068  10.490000 100.32817  22.26709  94.42845  21.17470  94.48150  22.19352 100.38122  23.28590
      12  97.45791  23.24954         31.52694  10.490000 100.38122  23.28590  94.48150  22.19352  94.53460  23.21319 100.43432  24.30557
      12  97.51103  24.26964         31.55322  10.490000 100.43432  24.30557  94.53460  23.21319  94.58774  24.23370 100.48746  25.32609
      12  97.56419  25.29058         31.57953  10.490000 100.48746  25.32609  94.58774  24.23370  94.64093  25.25507 100.54065  26.34745
      12  97.61740  26.31237         31.60586  10.490000 100.54065  26.34745  94.64093  25.25507  94.69416  26.27729 100.59388  27.36967
      12  97.67065  27.33502         31.63221  10.490000 100.59388  27.36967  94.69416  26.27729  94.74743  27.30036 100.64715  28.39274
      12  97.72395  28.35851         31.65858  10.490000 100.64715  28.39274  94.74743  27.30036  94.80075  28.32428 100.70047  29.41667
      12  97.77729  29.38286         31.68497  10.490000 100.70047  29.41667  94.80075  28.32428  94.85411  29.34906 100.75383  30.44144
      12  97.83068  30.40807         31.71138  10.490000 100.75383  30.44144  94.85411  29.34906  94.90752  30.37469 100.80724  31.46708
      12  97.88411  31.43413         31.73782  10.490000 100.80724  31.46708  94.90752  30.37469  94.96097  31.40118 100.86069  32.49356
      12  97.93758  32.46104         31.76428  10.490000 100.86069  32.49356  94.96097  31.40118  95.01447  32.42852 100.91419  33.52090
      12  97.99110  33.48881         31.79076  10.490000 100.91419  33.52090  95.01447  32.42852  95.06801  33.45672 100.96773  34.54910
      12  98.04466  34.51744         31.81727  10.490000 100.96773  34.54910  95.06801  33.45672  95.12160  34.48578 101.02132  35.57816
      12  98.09827  35.54693         31.84379  10.490000 101.02132  35.57816  95.12160  34.48578  95.17523  35.51569 101.07495  36.60807
      12  98.15193  36.57727         31.87034  10.490000 101.07495  36.60807  95.17523  35.51569  95.22890  36.54646 101.12862  37.63885
      12  98.20562  37.60847         31.89691  10.490000 101.12862  37.63885  95.22890  36.54646  95.28262  37.57810 101.18234  38.67048
      12  98.25937  38.64053         31.92350  10.490000 101.18234  38.67048  95.28262  37.57810  95.33639  38.61059 101.23611  39.70297
      12  98.31315  39.67346         31.95011  10.490000 101.23611  39.70297  95.33639  38.61059  95.39020  39.64394 101.28992  40.73632
      12  98.36699  40.70724         31.97675  10.490000 101.28992  40.73632  95.39020  39.64394  95.44405  40.67816 101.34377  41.77054
      12  98.42086  41.74189         32.00341  10.490000 101.34377  41.77054  95.44405  40.67816  95.49795  41.71323 101.39767  42.80562
      12  98.47479  42.77739         32.03009  10.490000 101.39767  42.80562  95.49795  41.71323  95.55190  42.74917 101.45162  43.84156
      12  98.52875  43.81377         32.05679  10.490000 101.45162  43.84156  95.55190  42.74917  95.60589  43.78598 101.50561  44.87836
      12  98.58276  44.85100         32.08352  10.490000 101.50561  44.87836  95.60589  43.78598  95.65992  44.82364 101.55964  45.91603
      12  98.63682  45.88910         32.11026  10.490000 101.55964  45.91603  95.65992  44.82364  95.71400  45.86218 101.61372  46.95456
      12  98.69092  46.92807         32.13703  10.490000 101.61372  46.95456  95.71400  45.86218  95.76813  46.90157 101.66785  47.99396
      12  98.74507  47.96790         32.16383  10.490000 101.66785  47.99396  95.76813  46.90157  95.82230  47.94184 101.72202  49.03422
      12  98.79926  49.00860         32.19064  10.490000 101.72202  49.03422  95.82230  47.94184  95.87651  48.98297 101.77623  50.07535
      12  98.85350  50.05016         32.21748  10.490000 101.77623  50.07535  95.87651  48.98297  95.93077  50.02497 101.83049  51.11735
      12  98.90778  51.09260         32.24434  10.490000 101.83049  51.11735  95.93077  50.02497  95.98508  51.06784 101.88480  52.16022
      12  98.96211  52.13590         32.27122  10.490000 101.88480  52.16022  95.98508  51.06784  96.03943  52.11158 101.93915  53.20396
      12  99.01648  53.18007         32.29812  10.490000 101.93915  53.20396  96.03943  52.11158  96.09382  53.15619 101.99354  54.24857
      12  99.07090  54.22512         32.32505  10.490000 101.99354  54.24857  96.09382  53.15619  96.14826  54.20167 102.04798  55.29405
      12  99.12537  55.27103         32.35200  10.490000 102.04798  55.29405  96.14826  54.20167  96.20275  55.24802 102.10247  56.34040
      12  99.17988  56.31782         32.37897  10.490000 102.10247  56.34040  96.20275  55.24802  96.25728  56.29524 102.15700  57.38762
      12  99.23443  57.36548         32.40596  10.490000 102.15700  57.38762  96.25728  56.29524  96.31186  57.34334 102.21158  58.43572
      12  99.28903  58.41401         32.43298  10.490000 102.21158  58.43572  96.31186  57.34334  96.36648  58.39231 102.26620  59.48469
      12  99.34368  59.46342         32.46002  10.490000 102.26620  59.48469  96.36648  58.39231  96.42115  59.44215 102.32087  60.53454
      12  99.39837  60.51370         32.48708  10.490000 102.32087  60.53454  96.42115  59.44215  96.47587  60.49287 102.37559  61.58526
      12  99.45311  61.56486         32.51416  10.490000 102.37559  61.58526  96.47587  60.49287  96.53063  61.54447 102.43035  62.63685
      12  99.50789  62.61690         32.54127  10.490000 102.43035  62.63685  96.53063  61.54447  96.58543  62.59694 102.48515  63.68932
      12  99.56272  63.66981         32.56840  10.490000 102.48515  63.68932  96.58543  62.59694  96.64028  63.65029 102.54000  64.74267
      12  99.61759  64.72360         32.59555  10.490000 102.54000  64.74267  96.64028  63.65029  96.69518  64.70452 102.59490  65.79690
      12  99.67251  65.77826         32.62272  10.490000 102.59490  65.79690  96.69518  64.70452  96.75012  65.75963 102.64984  66.85201
      12  99.72748  66.83381         32.64992  10.490000 102.64984  66.85201  96.75012  65.75963  96.80511  66.81561 102.70483  67.90800
      12  99.78249  67.89024         32.67714  10.490000 102.70483  67.90800  96.80511  66.81561  96.86014  67.87248 102.75986  68.96486
      12  99.83754  68.94755         32.70438  10.490000 102.75986  68.96486  96.86014  67.87248  96.91522  68.93023 102.81494  70.02261
      12  99.89265  70.00573         32.73165  10.490000 102.81494  70.02261  96.91522  68.93023  96.97035  69.98886 102.87007  71.08124
      12  99.94780  71.06481         32.75894  10.490000 102.87007  71.08124  96.97035  69.98886  97.02552  71.04837 102.92524  72.14075
      12 100.00299  72.12476         32.78625  10.490000 102.92524  72.14075  97.02552  71.04837  97.08074  72.10877 102.98046  73.20115
      12 100.05823  73.18560         32.81358  10.490000 102.98046  73.20115  97.08074  72.10877  97.13600  73.17005 103.03572  74.26243
      12 100.11352  74.24732         32.84093  10.490000 103.03572  74.26243  97.13600  73.17005  97.19131  74.23221 103.09103  75.32459
      12 100.16885  75.30993         32.86831  10.490000 103.09103  75.32459  97.19131  74.23221  97.24667  75.29526 103.14639  76.38764
      12 100.22423  76.37342         32.89572  10.490000 103.14639  76.38764  97.24667  75.29526  97.30207  76.35920 103.20179  77.45158
      12 100.27966  77.43780         32.92314  10.490000 103.20179  77.45158  97.30207  76.35920  97.35752  77.42402 103.25724  78.51640
      12 100.33513  78.50307         32.95059  10.490000 103.25724  78.51640  97.35752  77.42402  97.41302  78.48973 103.31274  79.58211
      12 100.39065  79.56922         32.97806  10.490000 103.31274  79.58211  97.41302  78.48973  97.46856  79.55633 103.36828  80.64871
      12 100.44621  80.63627         33.00555  10.490000 103.36828  80.64871  97.46856  79.55633  97.52414  80.62382 103.42386  81.71620
      12 100.50182  81.70420         33.03307  10.490000 103.42386  81.71620  97.52414  80.62382  97.57978  81.69220 103.47950  82.78458
      12 100.55748  82.77303         33.06061  10.490000 103.47950  82.78458  97.57978  81.69220  97.63546  82.76147 103.53518  83.85385
      12 100.61318  83.84274         33.08817  10.490000 103.53518  83.85385  97.63546  82.76147  97.69118  83.83163 103.59090  84.92401
      12 100.66893  84.91335         33.11575  10.490000 103.59090  84.92401  97.69118  83.83163  97.74696  84.90268 103.64668  85.99507
      12 100.72473  85.98485         33.14336  10.490000 103.64668  85.99507  97.74696  84.90268  97.80278  85.97463 103.70250  87.06701
      12 100.78057  87.05724         33.17099  10.490000 103.70250  87.06701  97.80278  85.97463  97.85864  87.04747 103.75836  88.13985
      12 100.83646  88.13053         33.19865  10.490000 103.75836  88.13985  97.85864  87.04747  97.91456  88.12120 103.81428  89.21358
      12 100.89240  89.20471         33.22632  10.490000 103.81428  89.21358  97.91456  88.12120  97.97051  89.19583 103.87023  90.28821
      12 100.94838  90.27978         33.25402  10.490000 103.87023  90.28821  97.97051  89.19583  98.02652  90.27136 103.92624  91.36374
      12 101.00441  91.35576         33.28175  10.490000 103.92624  91.36374  98.02652  90.27136  98.08257  91.34778 103.98229  92.44016
      12 101.06048  92.43263         33.30949  10.490000 103.98229  92.44016  98.08257  91.34778  98.13867  92.42510 104.03839  93.51748
      12 101.11661  93.51040         33.33726  10.490000 104.03839  93.51748  98.13867  92.42510  98.19482  93.50331 104.09454  94.59570
      12 101.17277  94.58906         33.36505  10.490000 104.09454  94.59570  98.19482  93.50331  98.25101  94.58243 104.15073  95.67481
      12 101.22899  95.66863         33.39287  10.490000 104.15073  95.67481  98.25101  94.58243  98.30725  95.66245 104.20697  96.75483
      12 101.28525  96.74910         33.42071  10.490000 104.20697  96.75483  98.30725  95.66245  98.36354  96.74336 104.26326  97.83575
      12 101.34156  97.83046         33.44857  10.490000 104.26326  97.83575  98.36354  96.74336  98.41987  97.82518 104.31959  98.91756
      12 101.39792  98.91273         33.47646  10.490000 104.31959  98.91756  98.41987  97.82518  98.47625  98.90790 104.37597 100.00028
      12 101.45432  99.99590         33.50437  10.490000 104.37597 100.00028  98.47625  98.90790  98.53268  99.99152 104.43240 101.08390
      12 101.51078 101.07997         33.53230  10.490000 104.43240 101.08390  98.53268  99.99152  98.58915 101.07605 104.48887 102.16843
      12 101.56727 102.16495         33.56025  10.490000 104.48887 102.16843  98.58915 101.07605  98.64567 102.16148 104.54539 103.25386
      12 101.62382 103.25083         33.58823  10.490000 104.54539 103.25386  98.64567 102.16148  98.70224 103.24781 104.60196 104.34019
      12 101.68041 104.33762         33.61623  10.490000 104.60196 104.34019  98.70224 103.24781  98.75886 104.33505 104.65858 105.42743
      12 101.73705 105.42531         33.64426  10.490000 104.65858 105.42743  98.75886 104.33505  98.81552 105.42320 104.71524 106.51558
      12 101.79374 106.51391         33.67231  10.490000 104.71524 106.51558  98.81552 105.42320  98.87223 106.51225 104.77195 107.60463
      12 101.85047 107.60342         33.70038  10.490000 104.77195 107.60463  98.87223 106.51225  98.92899 107.60221 104.82871 108.69459
      12 101.90725 108.69384         33.72847  10.490000 104.82871 108.69459  98.92899 107.60221  98.98579 108.69308 104.88552 109.78546
      12 101.96408 109.78516         33.75659  10.490000 104.88552 109.78546  98.98579 108.69308  99.04265 109.78486 104.94237 110.87724
      12 102.02096 110.87740         33.78474  10.490000 104.94237 110.87724  99.04265 109.78486  99.09955 110.87755 104.99927 111.96993
      12 102.07788 111.97054         33.81290  10.490000 104.99927 111.96993  99.09955 110.87755  99.15649 111.97115 105.05621 113.06353
      12 102.13485 113.06460         33.84109  10.490000 105.05621 113.06353  99.15649 111.97115  99.21349 113.06566 105.11321 114.15805
      12 102.19187 114.15957         33.86930  10.490000 105.11321 114.15805  99.21349 113.06566  99.27053 114.16109 105.17025 115.25347
      12 102.24894 115.25545         33.89754  10.490000 105.17025 115.25347  99.27053 114.16109  99.32762 115.25743 105.22734 116.34981
      12 102.30605 116.35224         33.92580  10.490000 105.22734 116.34981  99.32762 115.25743  99.38476 116.35468 105.28448 117.44706
      12 102.36321 117.44995         33.95408  10.490000 105.28448 117.44706  99.38476 116.35468  99.44194 117.45285 105.34166 118.54523
      12 102.42042 118.54858         33.98239  10.490000 105.34166 118.54523  99.44194 117.45285  99.49917 118.55193 105.39889 119.64431
      12 102.47767 119.64812         34.01072  10.490000 105.39889 119.64431  99.49917 118.55193  99.55645 119.65193 105.45618 120.74431
      12 102.53498 120.74858         34.03907  10.490000 105.45618 120.74431  99.55645 119.65193  99.61378 120.75284 105.51350 121.84523
      12 102.59233 121.84995         34.06745  10.490000 105.51350 121.84523  99.61378 120.75284  99.67116 121.85468 105.57088 122.94706
      12 102.64973 122.95224         34.09585  10.490000 105.57088 122.94706  99.67116 121.85468  99.72858 122.95743 105.62830 124.04981
      12 102.70718 124.05546         34.12428  10.490000 105.62830 124.04981  99.72858 122.95743  99.78605 124.06110 105.68577 125.15348
      12 102.76467 125.15959         34.15273  10.490000 105.68577 125.15348  99.78605 124.06110  99.84357 125.16569 105.74329 126.25808
      12 102.82222 126.26464         34.18120  10.490000 105.74329 126.25808  99.84357 125.16569  99.90114 126.27120 105.80086 127.36359
      12 102.87981 127.37061         34.20970  10.490000 105.80086 127.36359  99.90114 126.27120  99.95876 127.37764 105.85848 128.47002
      11 115.93127   0.72097         33.78474  11.710000 118.83386   0.81039 112.95874  -0.40736 113.02868   0.63156 118.90380   1.84931
      11 116.00124   1.76033         33.81290  11.710000 118.90380   1.84931 113.02868   0.63156 113.09868   1.67136 118.97380   2.88911
      11 116.07127   2.80056         33.84109  11.710000 118.97380   2.88911 113.09868   1.67136 113.16873   2.71202 119.04386   3.92976
      11 116.14135   3.84165         33.86930  11.710000 119.04386   3.92976 113.16873   2.71202 113.23884   3.75354 119.11397   4.97129
      11 116.21149   4.88362         33.89754  11.710000 119.11397   4.97129 113.23884   3.75354 113.30902   4.79594 119.18414   6.01369
      11 116.28169   5.92645         33.92580  11.710000 119.18414   6.01369 113.30902   4.79594 113.37925   5.83920 119.25437   7.05695
      11 116.35195   6.97014         33.95408  11.710000 119.25437   7.05695 113.37925   5.83920 113.44954   6.88334 119.32466   8.10109
      11 116.42227   8.01471         33.98239  11.710000 119.32466   8.10109 113.44954   6.88334 113.51988   7.92834 119.39501   9.14609
      11 116.49265   9.06015         34.01072  11.710000 119.39501   9.14609 113.51988   7.92834 113.59029   8.97422 119.46541  10.19197
      11 116.56308  10.10647         34.03907  11.710000 119.46541  10.19197 113.59029   8.97422 113.66076  10.02097 119.53588  11.23871
      11 116.63358  11.15365         34.06745  11.710000 119.53588  11.23871 113.66076  10.02097 113.73128  11.06859 119.60640  12.28634
      11 116.70413  12.20171         34.09585  11.710000 119.60640  12.28634 113.73128  11.06859 113.80186  12.11708 119.67699  13.33483
      11 116.77474  13.25064         34.12428  11.710000 119.67699  13.33483 113.80186  12.11708 113.87250  13.16645 119.74763  14.38420
      11 116.84542  14.30044         34.15273  11.710000 119.74763  14.38420 113.87250  13.16645 113.94320  14.21669 119.81833  15.43444
      11 116.91615  15.35112         34.18120  11.710000 119.81833  15.43444 113.94320  14.21669 114.01396  15.26781 119.88909  16.48556
      11 116.98693  16.40268         34.20970  11.710000 119.88909  16.48556 114.01396  15.26781 114.08478  16.31980 119.95991  17.53755
      11 117.05778  17.45511         34.23822  11.710000 119.95991  17.53755 114.08478  16.31980 114.15566  17.37268 120.03078  18.59043
      11 117.12869  18.50843         34.26676  11.710000 120.03078  18.59043 114.15566  17.37268 114.22659  18.42643 120.10172  19.64417
      11 117.19965  19.56261         34.29533  11.710000 120.10172  19.64417 114.22659  18.42643 114.29759  19.48105 120.17271  20.69880
      11 117.27068  20.61768         34.32392  11.710000 120.17271  20.69880 114.29759  19.48105 114.36865  20.53656 120.24377  21.75431
      11 117.34176  21.67363         34.35253  11.710000 120.24377  21.75431 114.36865  20.53656 114.43976  21.59295 120.31488  22.81070
      11 117.41291  22.73046         34.38117  11.710000 120.31488  22.81070 114.43976  21.59295 114.51093  22.65022 120.38606  23.86797
      11 117.48411  23.78817         34.40983  11.710000 120.38606  23.86797 114.51093  22.65022 114.58216  23.70837 120.45729  24.92611
      11 117.55537  24.84676         34.43852  11.710000 120.45729  24.92611 114.58216  23.70837 114.65346  24.76740 120.52858  25.98515
      11 117.62669  25.90623         34.46723  11.710000 120.52858  25.98515 114.65346  24.76740 114.72481  25.82731 120.59993  27.04506
      11 117.69808  26.96659         34.49597  11.710000 120.59993  27.04506 114.72481  25.82731 114.79622  26.88811 120.67134  28.10586
      11 117.76952  28.02783         34.52473  11.710000 120.67134  28.10586 114.79622  26.88811 114.86769  27.94979 120.74281  29.16754
      11 117.84102  29.08995         34.55351  11.710000 120.74281  29.16754 114.86769  27.94979 114.93922  29.01236 120.81434  30.23011
      11 117.91258  30.15296         34.58231  11.710000 120.81434  30.23011 114.93922  29.01236 115.01081  30.07581 120.88593  31.29356
      11 117.98420  31.21686         34.61115  11.710000 120.88593  31.29356 115.01081  30.07581 115.08246  31.14015 120.95758  32.35790
      11 118.05588  32.28164         34.64000  11.710000 120.95758  32.35790 115.08246  31.14015 115.15417  32.20538 121.02929  33.42313
      11 118.12761  33.34731         34.66888  11.710000 121.02929  33.42313 115.15417  32.20538 115.22594  33.27150 121.10106  34.48925
      11 118.19941  34.41387         34.69778  11.710000 121.10106  34.48925 115.22594  33.27150 115.29777  34.33850 121.17289  35.55625
      11 118.27127  35.48132         34.72671  11.710000 121.17289  35.55625 115.29777  34.33850 115.36965  35.40639 121.24478  36.62414
      11 118.34319  36.54966         34.75566  11.710000 121.24478  36.62414 115.36965  35.40639 115.44160  36.47518 121.31673  37.69293
      11 118.41517  37.61889         34.78463  11.710000 121.31673  37.69293 115.44160  36.47518 115.51361  37.54485 121.38874  38.76260
      11 118.48721  38.68901         34.81363  11.710000 121.38874  38.76260 115.51361  37.54485 115.58568  38.61542 121.46080  39.83317
      11 118.55931  39.76002         34.84266  11.710000 121.46080  39.83317 115.58568  38.61542 115.65781  39.68688 121.53293  40.90463
      11 118.63146  40.83193         34.87170  11.710000 121.53293  40.90463 115.65781  39.68688 115.73000  40.75923 121.60512  41.97698
      11 118.70368  41.90473         34.90078  11.710000 121.60512  41.97698 115.73000  40.75923 115.80225  41.83248 121.67737  43.05023
      11 118.77596  42.97842         34.92987  11.710000 121.67737  43.05023 115.80225  41.83248 115.87455  42.90662 121.74968  44.12437
      11 118.84830  44.05301         34.95899  11.710000 121.74968  44.12437 115.87455  42.90662 115.94692  43.98166 121.82205  45.19941
      11 118.92070  45.12850         34.98814  11.710000 121.82205  45.19941 115.94692  43.98166 116.01935  45.05759 121.89448  46.27534
      11 118.99316  46.20488         35.01731  11.710000 121.89448  46.27534 116.01935  45.05759 116.09184  46.13442 121.96697  47.35217
      11 119.06568  47.28216         35.04650  11.710000 121.96697  47.35217 116.09184  46.13442 116.16439  47.21215 122.03952  48.42990
      11 119.13826  48.36034         35.07572  11.710000 122.03952  48.42990 116.16439  47.21215 116.23701  48.29077 122.11213  49.50852
      11 119.21090  49.43941         35.10496  11.710000 122.11213  49.50852 116.23701  48.29077 116.30968  49.37030 122.18480  50.58805
      11 119.28361  50.51939         35.13423  11.710000 122.18480  50.58805 116.30968  49.37030 116.38241  50.45073 122.25753  51.66847
      11 119.35637  51.60026         35.16352  11.710000 122.25753  51.66847 116.38241  50.45073 116.45520  51.53205 122.33033  52.74980
      11 119.42919  52.68204         35.19283  11.710000 122.33033  52.74980 116.45520  51.53205 116.52806  52.61428 122.40318  53.83203
      11 119.50207  53.76472         35.22217  11.710000 122.40318  53.83203 116.52806  52.61428 116.60097  53.69741 122.47609  54.91516
      11 119.57502  54.84830         35.25154  11.710000 122.47609  54.91516 116.60097  53.69741 116.67394  54.78144 122.54907  55.99919
      11 119.64802  55.93279         35.28092  11.710000 122.54907  55.99919 116.67394  54.78144 116.74698  55.86638 122.62211  57.08413
      11 119.72109  57.01817         35.31034  11.710000 122.62211  57.08413 116.74698  55.86638 116.82008  56.95222 122.69520  58.16997
      11 119.79422  58.10447         35.33977  11.710000 122.69520  58.16997 116.82008  56.95222 116.89324  58.03897 122.76836  59.25672
      11 119.86741  59.19167         35.36924  11.710000 122.76836  59.25672 116.89324  58.03897 116.96645  59.12662 122.84158  60.34437
      11 119.94066  60.27977         35.39872  11.710000 122.84158  60.34437 116.96645  59.12662 117.03973  60.21518 122.91486  61.43293
      11 120.01397  61.36879         35.42823  11.710000 122.91486  61.43293 117.03973  60.21518 117.11307  61.30465 122.98820  62.52239
      11 120.08734  62.45871         35.45777  11.710000 122.98820  62.52239 117.11307  61.30465 117.18648  62.39502 123.06160  63.61277
      11 120.16077  63.54954         35.48733  11.710000 123.06160  63.61277 117.18648  62.39502 117.25994  63.48630 123.13506  64.70405
      11 120.23426  64.64128         35.51692  11.710000 123.13506  64.70405 117.25994  63.48630 117.33346  64.57850 123.20859  65.79625
      11 120.30782  65.73393         35.54653  11.710000 123.20859  65.79625 117.33346  64.57850 117.40705  65.67160 123.28217  66.88935
      11 120.38144  66.82749         35.57616  11.710000 123.28217  66.88935 117.40705  65.67160 117.48070  66.76562 123.35582  67.98337
      11 120.45511  67.92196         35.60582  11.710000 123.35582  67.98337 117.48070  66.76562 117.55440  67.86055 123.42953  69.07830
      11 120.52885  69.01734         35.63550  11.710000 123.42953  69.07830 117.55440  67.86055 117.62817  68.95639 123.50330  70.17414
      11 120.60265  70.11364         35.66521  11.710000 123.50330  70.17414 117.62817  68.95639 117.70201  70.05314 123.57713  71.27089
      11 120.67651  71.21085         35.69495  11.710000 123.57713  71.27089 117.70201  70.05314 117.77590  71.15081 123.65102  72.36856
      11 120.75044  72.30898         35.72470  11.710000 123.65102  72.36856 117.77590  71.15081 117.84985  72.24939 123.72498  73.46714
      11 120.82442  73.40802         35.75449  11.710000 123.72498  73.46714 117.84985  72.24939 117.92387  73.34889 123.79899  74.56664
      11 120.89847  74.50798         35.78429  11.710000 123.79899  74.56664 117.92387  73.34889 117.99795  74.44931 123.87307  75.66706
      11 120.97258  75.60885         35.81413  11.710000 123.87307  75.66706 117.99795  74.44931 118.07209  75.55064 123.94721  76.76839
      11 121.04675  76.71064         35.84398  11.710000 123.94721  76.76839 118.07209  75.55064 118.14629  76.65290 124.02141  77.87064
      11 121.12098  77.81336         35.87387  11.710000 124.02141  77.87064 118.14629  76.65290 118.22055  77.75607 124.09568  78.97382
      11 121.19528  78.91699         35.90377  11.710000 124.09568  78.97382 118.22055  77.75607 118.29488  78.86016 124.17000  80.07791
      11 121.26963  80.02154         35.93371  11.710000 124.17000  80.07791 118.29488  78.86016 118.36926  79.96517 124.24439  81.18292
      11 121.34405  81.12701         35.96366  11.710000 124.24439  81.18292 118.36926  79.96517 118.44371  81.07110 124.31884  82.28885
      11 121.41853  82.23340         35.99365  11.710000 124.31884  82.28885 118.44371  81.07110 118.51822  82.17795 124.39335  83.39570
      11 121.49307  83.34072         36.02365  11.710000 124.39335  83.39570 118.51822  82.17795 118.59280  83.28573 124.46792  84.50348
      11 121.56768  84.44896         36.05369  11.710000 124.46792  84.50348 118.59280  83.28573 118.66743  84.39443 124.54256  85.61218
      11 121.64235  85.55812         36.08374  11.710000 124.54256  85.61218 118.66743  84.39443 118.74213  85.50406 124.61726  86.72180
      11 121.71707  86.66820         36.11382  11.710000 124.61726  86.72180 118.74213  85.50406 118.81689  86.61461 124.69202  87.83235
      11 121.79187  87.77922         36.14393  11.710000 124.69202  87.83235 118.81689  86.61461 118.89171  87.72608 124.76684  88.94383
      11 121.86672  88.89116         36.17406  11.710000 124.76684  88.94383 118.89171  87.72608 118.96660  88.83848 124.84172  90.05623
      11 121.94163  90.00402         36.20422  11.710000 124.84172  90.05623 118.96660  88.83848 119.04155  89.95181 124.91667  91.16956
      11 122.01661  91.11782         36.23441  11.710000 124.91667  91.16956 119.04155  89.95181 119.11656  91.06607 124.99168  92.28382
      11 122.09165  92.23254         36.26461  11.710000 124.99168  92.28382 119.11656  91.06607 119.19163  92.18126 125.06675  93.39901
      11 122.16676  93.34819         36.29485  11.710000 125.06675  93.39901 119.19163  92.18126 119.26676  93.29737 125.14189  94.51512
      11 122.24192  94.46477         36.32510  11.710000 125.14189  94.51512 119.26676  93.29737 119.34196  94.41442 125.21708  95.63217
      11 122.31715  95.58228         36.35539  11.710000 125.21708  95.63217 119.34196  94.41442 119.41722  95.53240 125.29234  96.75015
      11 122.39244  96.70073         36.38570  11.710000 125.29234  96.75015 119.41722  95.53240 119.49254  96.65131 125.36767  97.86906
      11 122.46780  97.82011         36.41603  11.710000 125.36767  97.86906 119.49254  96.65131 119.56793  97.77115 125.44305  98.98890
      11 122.54322  98.94042         36.44639  11.710000 125.44305  98.98890 119.56793  97.77115 119.64338  98.89193 125.51850 100.10968
      11 122.61870 100.06166         36.47677  11.710000 125.51850 100.10968 119.64338  98.89193 119.71889 100.01364 125.59401 101.23139
      11 122.69424 101.18384         36.50718  11.710000 125.59401 101.23139 119.71889 100.01364 119.79446 101.13629 125.66959 102.35404
      11 122.76984 102.30695         36.53762  11.710000 125.66959 102.35404 119.79446 101.13629 119.87010 102.25987 125.74523 103.47762
      11 122.84551 103.43100         36.56808  11.710000 125.74523 103.47762 119.87010 102.25987 119.94580 103.38439 125.82093 104.60214
      11 122.92125 104.55599         36.59857  11.710000 125.82093 104.60214 119.94580 103.38439 120.02156 104.50984 125.89669 105.72759
      11 122.99704 105.68192         36.62908  11.710000 125.89669 105.72759 120.02156 104.50984 120.09739 105.63624 125.97252 106.85399
      11 123.07290 106.80878         36.65962  11.710000 125.97252 106.85399 120.09739 105.63624 120.17328 106.76357 126.04841 107.98132
      11 123.14882 107.93658         36.69018  11.710000 126.04841 107.98132 120.17328 106.76357 120.24923 107.89185 126.12436 109.10960
      11 123.22480 109.06533         36.72077  11.710000 126.12436 109.10960 120.24923 107.89185 120.32525 109.02106 126.20038 110.23881
      11 123.30085 110.19501         36.75138  11.710000 126.20038 110.23881 120.32525 109.02106 120.40133 110.15122 126.27646 111.36897
      11 123.37696 111.32564         36.78202  11.710000 126.27646 111.36897 120.40133 110.15122 120.47747 111.28231 126.35260 112.50006
      11 123.45314 112.45721         36.81268  11.710000 126.35260 112.50006 120.47747 111.28231 120.55368 112.41436 126.42881 113.63210
      11 123.52938 113.58972         36.84337  11.710000 126.42881 113.63210 120.55368 112.41436 120.62995 113.54734 126.50508 114.76509
      11 123.60568 114.72318         36.87409  11.710000 126.50508 114.76509 120.62995 113.54734 120.70629 114.68127 126.58141 115.89902
      11 123.68205 115.85758         36.90483  11.710000 126.58141 115.89902 120.70629 114.68127 120.78268 115.81614 126.65781 117.03389
      11 123.75848 116.99293         36.93560  11.710000 126.65781 117.03389 120.78268 115.81614 120.85914 116.95196 126.73427 118.16971
      11 123.83497 118.12922         36.96639  11.710000 126.73427 118.16971 120.85914 116.95196 120.93567 118.08873 126.81079 119.30648
      11 123.91153 119.26646         36.99721  11.710000 126.81079 119.30648 120.93567 118.08873 121.01226 119.22645 126.88738 120.44420
      11 123.98815 120.40465         37.02805  11.710000 126.88738 120.44420 121.01226 119.22645 121.08891 120.36511 126.96403 121.58286
      11 124.06483 121.54379         37.05892  11.710000 126.96403 121.58286 121.08891 120.36511 121.16563 121.50472 127.04075 122.72247
      11 124.14158 122.68388         37.08982  11.710000 127.04075 122.72247 121.16563 121.50472 121.24241 122.64529 127.11753 123.86304
      11 124.21839 123.82492         37.12074  11.710000 127.11753 123.86304 121.24241 122.64529 121.31925 123.78680 127.19438 125.00455
      11 124.29527 124.96691         37.15168  11.710000 127.19438 125.00455 121.31925 123.78680 121.39616 124.92927 127.27128 126.14702
      11 124.37221 126.10985         37.18266  11.710000 127.27128 126.14702 121.39616 124.92927 121.47313 126.07268 127.34826 127.29043
      11 124.44921 127.25374         37.21365  11.710000 127.34826 127.29043 121.47313 126.07268 121.55017 127.21706 127.42529 128.43480
