\comment S13.0 wavsamp for IRS Long-Low
\wavsamp software version 5.1 (Wed Apr 20 08:45:04 PDT 2005)
\processing time 15:42:56 PST 08/11/2005, David Shupe
\character channelID = 2
| order |x_center |y_center |   wavelength   |  angle   |   x0    |   y0    |   x1    |   y1    |   x2    |   y2    |   x3    |   y3    |
| int   |  real   |  real   |    real        |   real   |  real   |  real   |  real   |  real   |  real   |  real   |  real   |  real   |
       2  78.14093  80.49824         13.90000  -1.200000  95.11946  80.60396  61.12692  81.31601  61.16140  80.39252  95.15395  79.68048
       2  78.17344  79.57476         13.98468  -1.200000  95.15395  79.68048  61.16140  80.39252  61.19199  79.46904  95.18453  78.75700
       2  78.20217  78.65128         14.06935  -1.200000  95.18453  78.75700  61.19199  79.46904  61.21891  78.54556  95.21145  77.83351
       2  78.22733  77.72779         14.15403  -1.200000  95.21145  77.83351  61.21891  78.54556  61.24237  77.62207  95.23492  76.91003
       2  78.24915  76.80431         14.23871  -1.200000  95.23492  76.91003  61.24237  77.62207  61.26260  76.69859  95.25514  75.98655
       2  78.26784  75.88083         14.32338  -1.200000  95.25514  75.98655  61.26260  76.69859  61.27980  75.77511  95.27234  75.06306
       2  78.28360  74.95734         14.40806  -1.200000  95.27234  75.06306  61.27980  75.77511  61.29418  74.85162  95.28672  74.13958
       2  78.29664  74.03386         14.49274  -1.200000  95.28672  74.13958  61.29418  74.85162  61.30593  73.92814  95.29848  73.21610
       2  78.30716  73.11038         14.57741  -1.200000  95.29848  73.21610  61.30593  73.92814  61.31526  73.00466  95.30780  72.29261
       2  78.31535  72.18689         14.66209  -1.200000  95.30780  72.29261  61.31526  73.00466  61.32235  72.08117  95.31490  71.36913
       2  78.32139  71.26341         14.74677  -1.200000  95.31490  71.36913  61.32235  72.08117  61.32740  71.15769  95.31994  70.44565
       2  78.32548  70.33993         14.83145  -1.200000  95.31994  70.44565  61.32740  71.15769  61.33057  70.23421  95.32311  69.52217
       2  78.32778  69.41644         14.91612  -1.200000  95.32311  69.52217  61.33057  70.23421  61.33205  69.31072  95.32460  68.59868
       2  78.32849  68.49296         15.00080  -1.200000  95.32460  68.59868  61.33205  69.31072  61.33202  68.38724  95.32456  67.67520
       2  78.32775  67.56948         15.08548  -1.200000  95.32456  67.67520  61.33202  68.38724  61.33063  67.46376  95.32317  66.75172
       2  78.32575  66.64599         15.17015  -1.200000  95.32317  66.75172  61.33063  67.46376  61.32805  66.54027  95.32060  65.82823
       2  78.32264  65.72251         15.25483  -1.200000  95.32060  65.82823  61.32805  66.54027  61.32444  65.61679  95.31699  64.90475
       2  78.31857  64.79903         15.33951  -1.200000  95.31699  64.90475  61.32444  65.61679  61.31996  64.69331  95.31250  63.98127
       2  78.31370  63.87554         15.42418  -1.200000  95.31250  63.98127  61.31996  64.69331  61.31474  63.76982  95.30728  63.05778
       2  78.30817  62.95206         15.50886  -1.200000  95.30728  63.05778  61.31474  63.76982  61.30894  62.84634  95.30148  62.13430
       2  78.30213  62.02858         15.59354  -1.200000  95.30148  62.13430  61.30894  62.84634  61.30269  61.92286  95.29523  61.21082
       2  78.29571  61.10510         15.67821  -1.200000  95.29523  61.21082  61.30269  61.92286  61.29612  60.99937  95.28867  60.28733
       2  78.28904  60.18161         15.76289  -1.200000  95.28867  60.28733  61.29612  60.99937  61.28938  60.07589  95.28192  59.36385
       2  78.28224  59.25813         15.84757  -1.200000  95.28192  59.36385  61.28938  60.07589  61.28257  59.15241  95.27511  58.44037
       2  78.27545  58.33465         15.93224  -1.200000  95.27511  58.44037  61.28257  59.15241  61.27583  58.22892  95.26837  57.51688
       2  78.26878  57.41116         16.01692  -1.200000  95.26837  57.51688  61.27583  58.22892  61.26926  57.30544  95.26180  56.59340
       2  78.26235  56.48768         16.10160  -1.200000  95.26180  56.59340  61.26926  57.30544  61.26298  56.38196  95.25552  55.66992
       2  78.25625  55.56420         16.18628  -1.200000  95.25552  55.66992  61.26298  56.38196  61.25709  55.45847  95.24963  54.74643
       2  78.25060  54.64071         16.27095  -1.200000  95.24963  54.74643  61.25709  55.45847  61.25170  54.53499  95.24424  53.82295
       2  78.24549  53.71723         16.35563  -1.200000  95.24424  53.82295  61.25170  54.53499  61.24690  53.61151  95.23944  52.89947
       2  78.24102  52.79375         16.44031  -1.200000  95.23944  52.89947  61.24690  53.61151  61.24278  52.68803  95.23532  51.97598
       2  78.23727  51.87026         16.52498  -1.200000  95.23532  51.97598  61.24278  52.68803  61.23943  51.76454  95.23197  51.05250
       2  78.23434  50.94678         16.60966  -1.200000  95.23197  51.05250  61.23943  51.76454  61.23693  50.84106  95.22947  50.12902
       2  78.23230  50.02330         16.69434  -1.200000  95.22947  50.12902  61.23693  50.84106  61.23536  49.91758  95.22791  49.20553
       2  78.23122  49.09981         16.77901  -1.200000  95.22791  49.20553  61.23536  49.91758  61.23480  48.99409  95.22734  48.28205
       2  78.23118  48.17633         16.86369  -1.200000  95.22734  48.28205  61.23480  48.99409  61.23530  48.07061  95.22784  47.35857
       2  78.23225  47.25285         16.94837  -1.200000  95.22784  47.35857  61.23530  48.07061  61.23694  47.14713  95.22948  46.43508
       2  78.23447  46.32936         17.03304  -1.200000  95.22948  46.43508  61.23694  47.14713  61.23977  46.22364  95.23231  45.51160
       2  78.23792  45.40588         17.11772  -1.200000  95.23231  45.51160  61.23977  46.22364  61.24385  45.30016  95.23639  44.58812
       2  78.24264  44.48240         17.20240  -1.200000  95.23639  44.58812  61.24385  45.30016  61.24922  44.37668  95.24176  43.66463
       2  78.24868  43.55891         17.28707  -1.200000  95.24176  43.66463  61.24922  44.37668  61.25594  43.45319  95.24848  42.74115
       2  78.25608  42.63543         17.37175  -1.200000  95.24848  42.74115  61.25594  43.45319  61.26403  42.52971  95.25657  41.81767
       2  78.26487  41.71195         17.45643  -1.200000  95.25657  41.81767  61.26403  42.52971  61.27354  41.60623  95.26608  40.89418
       2  78.27510  40.78846         17.54111  -1.200000  95.26608  40.89418  61.27354  41.60623  61.28449  40.68274  95.27703  39.97070
       2  78.28679  39.86498         17.62578  -1.200000  95.27703  39.97070  61.28449  40.68274  61.29691  39.75926  95.28946  39.04722
       2  78.29996  38.94150         17.71046  -1.200000  95.28946  39.04722  61.29691  39.75926  61.31083  38.83578  95.30337  38.12373
       2  78.31462  38.01801         17.79514  -1.200000  95.30337  38.12373  61.31083  38.83578  61.32625  37.91229  95.31880  37.20025
       2  78.33081  37.09453         17.87981  -1.200000  95.31880  37.20025  61.32625  37.91229  61.34320  36.98881  95.33574  36.27677
       2  78.34851  36.17105         17.96449  -1.200000  95.33574  36.27677  61.34320  36.98881  61.36167  36.06533  95.35421  35.35328
       2  78.36775  35.24756         18.04917  -1.200000  95.35421  35.35328  61.36167  36.06533  61.38166  35.14184  95.37421  34.42980
       2  78.38851  34.32408         18.13384  -1.200000  95.37421  34.42980  61.38166  35.14184  61.40319  34.21836  95.39573  33.50632
       2  78.41079  33.40060         18.21852  -1.200000  95.39573  33.50632  61.40319  34.21836  61.42623  33.29488  95.41877  32.58283
       2  78.43458  32.47711         18.30320  -1.200000  95.41877  32.58283  61.42623  33.29488  61.45077  32.37139  95.44332  31.65935
       2  78.45988  31.55363         18.38787  -1.200000  95.44332  31.65935  61.45077  32.37139  61.47681  31.44791  95.46935  30.73587
       2  78.48665  30.63015         18.47255  -1.200000  95.46935  30.73587  61.47681  31.44791  61.50431  30.52443  95.49685  29.81238
       2  78.51487  29.70666         18.55723  -1.200000  95.49685  29.81238  61.50431  30.52443  61.53325  29.60094  95.52579  28.88890
       2  78.54452  28.78318         18.64190  -1.200000  95.52579  28.88890  61.53325  29.60094  61.56360  28.67746  95.55615  27.96542
       2  78.57557  27.85970         18.72658  -1.200000  95.55615  27.96542  61.56360  28.67746  61.59533  27.75398  95.58787  27.04193
       2  78.60797  26.93621         18.81126  -1.200000  95.58787  27.04193  61.59533  27.75398  61.62839  26.83049  95.62093  26.11845
       2  78.64167  26.01273         18.89594  -1.200000  95.62093  26.11845  61.62839  26.83049  61.66273  25.90701  95.65528  25.19497
       2  78.67665  25.08925         18.98061  -1.200000  95.65528  25.19497  61.66273  25.90701  61.69832  24.98353  95.69086  24.27148
       2  78.71283  24.16576         19.06529  -1.200000  95.69086  24.27148  61.69832  24.98353  61.73509  24.06004  95.72763  23.34800
       2  78.75017  23.24228         19.14997  -1.200000  95.72763  23.34800  61.73509  24.06004  61.77298  23.13656  95.76552  22.42452
       2  78.78860  22.31880         19.23464  -1.200000  95.76552  22.42452  61.77298  23.13656  61.81193  22.21308  95.80448  21.50103
       2  78.82806  21.39531         19.31932  -1.200000  95.80448  21.50103  61.81193  22.21308  61.85188  21.28959  95.84442  20.57755
       2  78.86847  20.47183         19.40400  -1.200000  95.84442  20.57755  61.85188  21.28959  61.89274  20.36611  95.88528  19.65407
       2  78.90976  19.54835         19.48867  -1.200000  95.88528  19.65407  61.89274  20.36611  61.93443  19.44263  95.92698  18.73058
       2  78.95184  18.62486         19.57335  -1.200000  95.92698  18.73058  61.93443  19.44263  61.97689  18.51914  95.96943  17.80710
       2  78.99464  17.70138         19.65803  -1.200000  95.96943  17.80710  61.97689  18.51914  62.02001  17.59566  96.01255  16.88362
       2  79.03807  16.77790         19.74270  -1.200000  96.01255  16.88362  62.02001  17.59566  62.06371  16.67218  96.05625  15.96013
       2  79.08202  15.85441         19.82738  -1.200000  96.05625  15.96013  62.06371  16.67218  62.10789  15.74869  96.10043  15.03665
       2  79.12640  14.93093         19.91206  -1.200000  96.10043  15.03665  62.10789  15.74869  62.15244  14.82521  96.14498  14.11317
       2  79.17110  14.00745         19.99673  -1.200000  96.14498  14.11317  62.15244  14.82521  62.19726  13.90173  96.18981  13.18968
       2  79.21601  13.08396         20.08141  -1.200000  96.18981  13.18968  62.19726  13.90173  62.24225  12.97824  96.23479  12.26620
       2  79.26103  12.16048         20.16609  -1.200000  96.23479  12.26620  62.24225  12.97824  62.28727  12.05476  96.27981  11.34272
       2  79.30603  11.23700         20.25077  -1.200000  96.27981  11.34272  62.28727  12.05476  62.33221  11.13128  96.32476  10.41924
       2  79.35089  10.31351         20.33544  -1.200000  96.32476  10.41924  62.33221  11.13128  62.37696  10.20779  96.36950   9.49575
       2  79.39548   9.39003         20.42012  -1.200000  96.36950   9.49575  62.37696  10.20779  62.42136   9.28431  96.41391   8.57227
       2  79.43967   8.46655         20.50480  -1.200000  96.41391   8.57227  62.42136   9.28431  62.46530   8.36083  96.45784   7.64879
       2  79.48332   7.54306         20.58947  -1.200000  96.45784   7.64879  62.46530   8.36083  62.50863   7.43734  96.50117   6.72530
       2  79.52629   6.61958         20.67415  -1.200000  96.50117   6.72530  62.50863   7.43734  62.55120   6.51386  96.54375   5.80182
       2  79.56843   5.69610         20.75883  -1.200000  96.54375   5.80182  62.55120   6.51386  62.59287   5.59038  96.58542   4.87834
       2  79.60960   4.77261         20.84350  -1.200000  96.58542   4.87834  62.59287   5.59038  62.63349   4.66689  96.62603   3.95485
       2  79.64962   3.84913         20.92818  -1.200000  96.62603   3.95485  62.63349   4.66689  62.67289   3.74341  96.66543   3.03137
       2  79.68835   2.92565         21.01286  -1.200000  96.66543   3.03137  62.67289   3.74341  62.71091   2.81993  96.70345   2.10789
       2  79.72562   2.00217         21.09753  -1.200000  96.70345   2.10789  62.71091   2.81993  62.74738   1.89644  96.73993   1.18440
       2  79.76126   1.07868         21.18221  -1.200000  96.73993   1.18440  62.74738   1.89644  62.78214   0.97296  96.77468   0.26092
       2  79.79509   0.15520         21.26689  -1.200000  96.77468   0.26092  62.78214   0.97296  62.81500   0.04948  96.80754  -0.66256
       3  80.64680 128.31971         19.14997  -1.200000  97.64987 128.42543  63.65732 129.13747  63.64235 128.21399  97.63489 127.50195
       3  80.62907 127.39623         19.31932  -1.200000  97.63489 127.50195  63.64235 128.21399  63.62186 127.29051  97.61441 126.57846
       3  80.60582 126.47274         19.48867  -1.200000  97.61441 126.57846  63.62186 127.29051  63.59587 126.36702  97.58841 125.65498
       3  80.57707 125.54926         19.65803  -1.200000  97.58841 125.65498  63.59587 126.36702  63.56436 125.44354  97.55690 124.73150
       3  80.54281 124.62578         19.82738  -1.200000  97.55690 124.73150  63.56436 125.44354  63.52734 124.52006  97.51988 123.80801
       3  80.50304 123.70229         19.99673  -1.200000  97.51988 123.80801  63.52734 124.52006  63.48481 123.59657  97.47735 122.88453
       3  80.45775 122.77881         20.16609  -1.200000  97.47735 122.88453  63.48481 123.59657  63.43677 122.67309  97.42931 121.96105
       3  80.40696 121.85533         20.33544  -1.200000  97.42931 121.96105  63.43677 122.67309  63.38322 121.74960  97.37576 121.03756
       3  80.35065 120.93184         20.50480  -1.200000  97.37576 121.03756  63.38322 121.74960  63.32416 120.82612  97.31670 120.11408
       3  80.28884 120.00836         20.67415  -1.200000  97.31670 120.11408  63.32416 120.82612  63.25959 119.90264  97.25213 119.19060
       3  80.22151 119.08487         20.84350  -1.200000  97.25213 119.19060  63.25959 119.90264  63.18951 118.97915  97.18205 118.26711
       3  80.14867 118.16139         21.01286  -1.200000  97.18205 118.26711  63.18951 118.97915  63.11392 118.05567  97.10646 117.34363
       3  80.07032 117.23791         21.18221  -1.200000  97.10646 117.34363  63.11392 118.05567  63.03281 117.13219  97.02535 116.42014
       3  79.98647 116.31442         21.35156  -1.200000  97.02535 116.42014  63.03281 117.13219  62.94620 116.20870  96.93874 115.49666
       3  79.89710 115.39094         21.52092  -1.200000  96.93874 115.49666  62.94620 116.20870  62.85407 115.28522  96.84662 114.57318
       3  79.80222 114.46746         21.69027  -1.200000  96.84662 114.57318  62.85407 115.28522  62.75644 114.36174  96.74898 113.64969
       1  42.43319 126.39138         19.65803  -1.200000  59.45634 126.51658  25.46380 127.22863  25.41023 126.26631  59.40277 125.55427
       1  42.38001 125.42933         19.82738  -1.200000  59.40277 125.55427  25.41023 126.26631  25.35743 125.30453  59.34997 124.59249
       1  42.32759 124.46782         19.99673  -1.200000  59.34997 124.59249  25.35743 125.30453  25.30540 124.34328  59.29794 123.63123
       1  42.27595 123.50683         20.16609  -1.200000  59.29794 123.63123  25.30540 124.34328  25.25414 123.38255  59.24668 122.67051
       1  42.22507 122.54637         20.33544  -1.200000  59.24668 122.67051  25.25414 123.38255  25.20365 122.42236  59.19620 121.71032
       1  42.17497 121.58644         20.50480  -1.200000  59.19620 121.71032  25.20365 122.42236  25.15393 121.46270  59.14648 120.75066
       1  42.12563 120.62705         20.67415  -1.200000  59.14648 120.75066  25.15393 121.46270  25.10498 120.50357  59.09753 119.79153
       1  42.07707 119.66818         20.84350  -1.200000  59.09753 119.79153  25.10498 120.50357  25.05680 119.54497  59.04935 118.83293
       1  42.02927 118.70985         21.01286  -1.200000  59.04935 118.83293  25.05680 119.54497  25.00939 118.58690  59.00194 117.87486
       1  41.98225 117.75205         21.18221  -1.200000  59.00194 117.87486  25.00939 118.58690  24.96275 117.62936  58.95530 116.91732
       1  41.93600 116.79477         21.35156  -1.200000  58.95530 116.91732  24.96275 117.62936  24.91689 116.67236  58.90943 115.96031
       1  41.89051 115.83803         21.52092  -1.200000  58.90943 115.96031  24.91689 116.67236  24.87179 115.71588  58.86433 115.00384
       1  41.84580 114.88182         21.69027  -1.200000  58.86433 115.00384  24.87179 115.71588  24.82746 114.75993  58.82000 114.04789
       1  41.80185 113.92614         21.85963  -1.200000  58.82000 114.04789  24.82746 114.75993  24.78390 113.80452  58.77644 113.09248
       1  41.75868 112.97099         22.02898  -1.200000  58.77644 113.09248  24.78390 113.80452  24.74111 112.84963  58.73365 112.13759
       1  41.71627 112.01637         22.19833  -1.200000  58.73365 112.13759  24.74111 112.84963  24.69909 111.89528  58.69163 111.18324
       1  41.67464 111.06228         22.36769  -1.200000  58.69163 111.18324  24.69909 111.89528  24.65784 110.94145  58.65038 110.22941
       1  41.63377 110.10872         22.53704  -1.200000  58.65038 110.22941  24.65784 110.94145  24.61736 109.98816  58.60990 109.27612
       1  41.59368 109.15569         22.70639  -1.200000  58.60990 109.27612  24.61736 109.98816  24.57765 109.03540  58.57019 108.32336
       1  41.55436 108.20320         22.87575  -1.200000  58.57019 108.32336  24.57765 109.03540  24.53871 108.08317  58.53125 107.37113
       1  41.51580 107.25123         23.04510  -1.200000  58.53125 107.37113  24.53871 108.08317  24.50054 107.13147  58.49309 106.41942
       1  41.47802 106.29979         23.21446  -1.200000  58.49309 106.41942  24.50054 107.13147  24.46314 106.18030  58.45569 105.46825
       1  41.44100 105.34889         23.38381  -1.200000  58.45569 105.46825  24.46314 106.18030  24.42651 105.22966  58.41906 104.51761
       1  41.40476 104.39852         23.55316  -1.200000  58.41906 104.51761  24.42651 105.22966  24.39066 104.27955  58.38320 103.56751
       1  41.36929 103.44867         23.72252  -1.200000  58.38320 103.56751  24.39066 104.27955  24.35557 103.32997  58.34811 102.61793
       1  41.33458 102.49936         23.89187  -1.200000  58.34811 102.61793  24.35557 103.32997  24.32125 102.38092  58.31379 101.66888
       1  41.30065 101.55058         24.06122  -1.200000  58.31379 101.66888  24.32125 102.38092  24.28770 101.43241  58.28024 100.72036
       1  41.26748 100.60232         24.23058  -1.200000  58.28024 100.72036  24.28770 101.43241  24.25492 100.48442  58.24746  99.77238
       1  41.23509  99.65460         24.39993  -1.200000  58.24746  99.77238  24.25492 100.48442  24.22291  99.53696  58.21545  98.82492
       1  41.20347  98.70741         24.56929  -1.200000  58.21545  98.82492  24.22291  99.53696  24.19167  98.59004  58.18421  97.87800
       1  41.17261  97.76075         24.73864  -1.200000  58.18421  97.87800  24.19167  98.59004  24.16120  97.64364  58.15374  96.93160
       1  41.14253  96.81462         24.90799  -1.200000  58.15374  96.93160  24.16120  97.64364  24.13150  96.69778  58.12405  95.98574
       1  41.11321  95.86903         25.07735  -1.200000  58.12405  95.98574  24.13150  96.69778  24.10257  95.75245  58.09512  95.04040
       1  41.08467  94.92396         25.24670  -1.200000  58.09512  95.04040  24.10257  95.75245  24.07442  94.80764  58.06696  94.09560
       1  41.05690  93.97942         25.41605  -1.200000  58.06696  94.09560  24.07442  94.80764  24.04703  93.86337  58.03957  93.15133
       1  41.02989  93.03542         25.58541  -1.200000  58.03957  93.15133  24.04703  93.86337  24.02041  92.91963  58.01295  92.20759
       1  41.00366  92.09194         25.75476  -1.200000  58.01295  92.20759  24.02041  92.91963  23.99456  91.97642  57.98710  91.26438
       1  40.97819  91.14899         25.92412  -1.200000  57.98710  91.26438  23.99456  91.97642  23.96948  91.03374  57.96202  90.32170
       1  40.95350  90.20658         26.09347  -1.200000  57.96202  90.32170  23.96948  91.03374  23.94517  90.09159  57.93771  89.37955
       1  40.92958  89.26470         26.26282  -1.200000  57.93771  89.37955  23.94517  90.09159  23.92163  89.14997  57.91418  88.43793
       1  40.90642  88.32334         26.43218  -1.200000  57.91418  88.43793  23.92163  89.14997  23.89886  88.20889  57.89141  87.49684
       1  40.88404  87.38252         26.60153  -1.200000  57.89141  87.49684  23.89886  88.20889  23.87687  87.26833  57.86941  86.55629
       1  40.86243  86.44223         26.77088  -1.200000  57.86941  86.55629  23.87687  87.26833  23.85564  86.32830  57.84818  85.61626
       1  40.84158  85.50247         26.94024  -1.200000  57.84818  85.61626  23.85564  86.32830  23.83518  85.38881  57.82772  84.67677
       1  40.82151  84.56324         27.10959  -1.200000  57.82772  84.67677  23.83518  85.38881  23.81549  84.44984  57.80803  83.73780
       1  40.80221  83.62454         27.27895  -1.200000  57.80803  83.73780  23.81549  84.44984  23.79657  83.51141  57.78911  82.79937
       1  40.78367  82.68637         27.44830  -1.200000  57.78911  82.79937  23.79657  83.51141  23.77842  82.57350  57.77096  81.86146
       1  40.76591  81.74873         27.61765  -1.200000  57.77096  81.86146  23.77842  82.57350  23.76104  81.63613  57.75359  80.92409
       1  40.74891  80.81162         27.78701  -1.200000  57.75359  80.92409  23.76104  81.63613  23.74444  80.69929  57.73698  79.98725
       1  40.73269  79.87505         27.95636  -1.200000  57.73698  79.98725  23.74444  80.69929  23.72860  79.76298  57.72114  79.05094
       1  40.71724  78.93900         28.12571  -1.200000  57.72114  79.05094  23.72860  79.76298  23.71353  78.82720  57.70607  78.11515
       1  40.70255  78.00348         28.29507  -1.200000  57.70607  78.11515  23.71353  78.82720  23.69923  77.89195  57.69177  77.17990
       1  40.68864  77.06850         28.46442  -1.200000  57.69177  77.17990  23.69923  77.89195  23.68570  76.95723  57.67824  76.24518
       1  40.67550  76.13404         28.63378  -1.200000  57.67824  76.24518  23.68570  76.95723  23.67294  76.02304  57.66549  75.31100
       1  40.66312  75.20012         28.80313  -1.200000  57.66549  75.31100  23.67294  76.02304  23.66095  75.08938  57.65350  74.37734
       1  40.65152  74.26673         28.97248  -1.200000  57.65350  74.37734  23.66095  75.08938  23.64974  74.15625  57.64228  73.44421
       1  40.64069  73.33387         29.14184  -1.200000  57.64228  73.44421  23.64974  74.15625  23.63929  73.22365  57.63183  72.51161
       1  40.63062  72.40153         29.31119  -1.200000  57.63183  72.51161  23.63929  73.22365  23.62961  72.29159  57.62215  71.57955
       1  40.62133  71.46973         29.48054  -1.200000  57.62215  71.57955  23.62961  72.29159  23.62070  71.36005  57.61324  70.64801
       1  40.61281  70.53846         29.64990  -1.200000  57.61324  70.64801  23.62070  71.36005  23.61256  70.42905  57.60511  69.71700
       1  40.60505  69.60772         29.81925  -1.200000  57.60511  69.71700  23.61256  70.42905  23.60519  69.49857  57.59774  68.78653
       1  40.59807  68.67751         29.98861  -1.200000  57.59774  68.78653  23.60519  69.49857  23.59860  68.56863  57.59114  67.85659
       1  40.59186  67.74784         30.15796  -1.200000  57.59114  67.85659  23.59860  68.56863  23.59277  67.63922  57.58531  66.92717
       1  40.58641  66.81869         30.32731  -1.200000  57.58531  66.92717  23.59277  67.63922  23.58771  66.71033  57.58025  65.99829
       1  40.58174  65.89007         30.49667  -1.200000  57.58025  65.99829  23.58771  66.71033  23.58342  65.78198  57.57597  65.06994
       1  40.57784  64.96198         30.66602  -1.200000  57.57597  65.06994  23.58342  65.78198  23.57990  64.85416  57.57245  64.14212
       1  40.57471  64.03443         30.83537  -1.200000  57.57245  64.14212  23.57990  64.85416  23.57716  63.92687  57.56970  63.21483
       1  40.57234  63.10740         31.00473  -1.200000  57.56970  63.21483  23.57716  63.92687  23.57518  63.00011  57.56772  62.28807
       1  40.57075  62.18091         31.17408  -1.200000  57.56772  62.28807  23.57518  63.00011  23.57397  62.07388  57.56651  61.36184
       1  40.56993  61.25494         31.34344  -1.200000  57.56651  61.36184  23.57397  62.07388  23.57353  61.14818  57.56607  60.43614
       1  40.56987  60.32951         31.51279  -1.200000  57.56607  60.43614  23.57353  61.14818  23.57386  60.22302  57.56641  59.51097
       1  40.57059  59.40461         31.68214  -1.200000  57.56641  59.51097  23.57386  60.22302  23.57497  59.29838  57.56751  58.58634
       1  40.57208  58.48024         31.85150  -1.200000  57.56751  58.58634  23.57497  59.29838  23.57684  58.37427  57.56938  57.66223
       1  40.57433  57.55640         32.02085  -1.200000  57.56938  57.66223  23.57684  58.37427  23.57948  57.45070  57.57202  56.73865
       1  40.57736  56.63309         32.19020  -1.200000  57.57202  56.73865  23.57948  57.45070  23.58289  56.52765  57.57544  55.81561
       1  40.58116  55.71031         32.35956  -1.200000  57.57544  55.81561  23.58289  56.52765  23.58707  55.60514  57.57962  54.89309
       1  40.58573  54.78806         32.52891  -1.200000  57.57962  54.89309  23.58707  55.60514  23.59203  54.68315  57.58457  53.97111
       1  40.59106  53.86634         32.69827  -1.200000  57.58457  53.97111  23.59203  54.68315  23.59775  53.76170  57.59029  53.04966
       1  40.59717  52.94515         32.86762  -1.200000  57.59029  53.04966  23.59775  53.76170  23.60424  52.84078  57.59678  52.12874
       1  40.60405  52.02449         33.03697  -1.200000  57.59678  52.12874  23.60424  52.84078  23.61150  51.92039  57.60405  51.20834
       1  40.61169  51.10437         33.20633  -1.200000  57.60405  51.20834  23.61150  51.92039  23.61954  51.00052  57.61208  50.28848
       1  40.62011  50.18477         33.37568  -1.200000  57.61208  50.28848  23.61954  51.00052  23.62834  50.08119  57.62088  49.36915
       1  40.62930  49.26571         33.54503  -1.200000  57.62088  49.36915  23.62834  50.08119  23.63791  49.16239  57.63045  48.45035
       1  40.63926  48.34717         33.71439  -1.200000  57.63045  48.45035  23.63791  49.16239  23.64825  48.24413  57.64080  47.53208
       1  40.64998  47.42917         33.88374  -1.200000  57.64080  47.53208  23.64825  48.24413  23.65937  47.32639  57.65191  46.61434
       1  40.66148  46.51170         34.05310  -1.200000  57.65191  46.61434  23.65937  47.32639  23.67125  46.40918  57.66379  45.69714
       1  40.67375  45.59475         34.22245  -1.200000  57.66379  45.69714  23.67125  46.40918  23.68390  45.49250  57.67644  44.78046
       1  40.68679  44.67834         34.39180  -1.200000  57.67644  44.78046  23.68390  45.49250  23.69732  44.57636  57.68987  43.86431
       1  40.70059  43.76246         34.56116  -1.200000  57.68987  43.86431  23.69732  44.57636  23.71151  43.66074  57.70406  42.94870
       1  40.71517  42.84711         34.73051  -1.200000  57.70406  42.94870  23.71151  43.66074  23.72648  42.74565  57.71902  42.03361
       1  40.73052  41.93229         34.89986  -1.200000  57.71902  42.03361  23.72648  42.74565  23.74221  41.83110  57.73475  41.11906
       1  40.74664  41.01800         35.06922  -1.200000  57.73475  41.11906  23.74221  41.83110  23.75871  40.91708  57.75126  40.20503
       1  40.76352  40.10424         35.23857  -1.200000  57.75126  40.20503  23.75871  40.91708  23.77598  40.00358  57.76853  39.29154
       1  40.78118  39.19101         35.40793  -1.200000  57.76853  39.29154  23.77598  40.00358  23.79403  39.09062  57.78657  38.37858
       1  40.79961  38.27832         35.57728  -1.200000  57.78657  38.37858  23.79403  39.09062  23.81284  38.17819  57.80538  37.46615
       1  40.81881  37.36615         35.74663  -1.200000  57.80538  37.46615  23.81284  38.17819  23.83242  37.26629  57.82497  36.55425
       1  40.83877  36.45451         35.91599  -1.200000  57.82497  36.55425  23.83242  37.26629  23.85278  36.35492  57.84532  35.64287
       1  40.85951  35.54341         36.08534  -1.200000  57.84532  35.64287  23.85278  36.35492  23.87390  35.44408  57.86644  34.73204
       1  40.88102  34.63284         36.25469  -1.200000  57.86644  34.73204  23.87390  35.44408  23.89579  34.53377  57.88833  33.82173
       1  40.90330  33.72279         36.42405  -1.200000  57.88833  33.82173  23.89579  34.53377  23.91845  33.62399  57.91100  32.91195
       1  40.92635  32.81328         36.59340  -1.200000  57.91100  32.91195  23.91845  33.62399  23.94189  32.71474  57.93443  32.00270
       1  40.95016  31.90430         36.76276  -1.200000  57.93443  32.00270  23.94189  32.71474  23.96609  31.80602  57.95863  31.09398
       1  40.97475  30.99584         36.93211  -1.200000  57.95863  31.09398  23.96609  31.80602  23.99106  30.89784  57.98360  30.18580
       1  41.00011  30.08792         37.10146  -1.200000  57.98360  30.18580  23.99106  30.89784  24.01680  29.99018  58.00935  29.27814
       1  41.02624  29.18053         37.27082  -1.200000  58.00935  29.27814  24.01680  29.99018  24.04332  29.08306  58.03586  28.37102
       1  41.05313  28.27367         37.44017  -1.200000  58.03586  28.37102  24.04332  29.08306  24.07060  28.17646  58.06314  27.46442
       1  41.08080  27.36734         37.60952  -1.200000  58.06314  27.46442  24.07060  28.17646  24.09865  27.27040  58.09120  26.55836
       1  41.10924  26.46154         37.77888  -1.200000  58.09120  26.55836  24.09865  27.27040  24.12748  26.36487  58.12002  25.65282
       1  41.13845  25.55628         37.94823  -1.200000  58.12002  25.65282  24.12748  26.36487  24.15707  25.45986  58.14961  24.74782
       1  41.16843  24.65154         38.11759  -1.200000  58.14961  24.74782  24.15707  25.45986  24.18743  24.55539  58.17997  23.84335
       1  41.19917  23.74733         38.28694  -1.200000  58.17997  23.84335  24.18743  24.55539  24.21857  23.65145  58.21111  22.93941
       1  41.23069  22.84366         38.45629  -1.200000  58.21111  22.93941  24.21857  23.65145  24.25047  22.74804  58.24301  22.03600
       1  41.26298  21.94051         38.62565  -1.200000  58.24301  22.03600  24.25047  22.74804  24.28314  21.84516  58.27568  21.13312
       1  41.29604  21.03790         38.79500  -1.200000  58.27568  21.13312  24.28314  21.84516  24.31658  20.94281  58.30913  20.23077
       1  41.32987  20.13581         38.96435  -1.200000  58.30913  20.23077  24.31658  20.94281  24.35080  20.04099  58.34334  19.32895
       1  41.36446  19.23426         39.13371  -1.200000  58.34334  19.32895  24.35080  20.04099  24.38578  19.13970  58.37832  18.42766
       1  41.39983  18.33324         39.30306  -1.200000  58.37832  18.42766  24.38578  19.13970  24.42153  18.23895  58.41408  17.52691
       1  41.43597  17.43275         39.47242  -1.200000  58.41408  17.52691  24.42153  18.23895  24.45806  17.33872  58.45060  16.62668
       1  41.47288  16.53279         39.64177  -1.200000  58.45060  16.62668  24.45806  17.33872  24.49535  16.43902  58.48789  15.72698
       1  41.51056  15.63335         39.81112  -1.200000  58.48789  15.72698  24.49535  16.43902  24.53341  15.53986  58.52596  14.82782
       1  41.54901  14.73446         39.98048  -1.200000  58.52596  14.82782  24.53341  15.53986  24.57225  14.64123  58.56479  13.92918
       1  41.58822  13.83609         40.14983  -1.200000  58.56479  13.92918  24.57225  14.64123  24.61185  13.74312  58.60439  13.03108
       1  41.62821  12.93825         40.31918  -1.200000  58.60439  13.03108  24.61185  13.74312  24.65222  12.84555  58.64477  12.13351
       1  41.66897  12.04094         40.48854  -1.200000  58.64477  12.13351  24.65222  12.84555  24.69337  11.94851  58.68591  11.23646
       1  41.71050  11.14416         40.65789  -1.200000  58.68591  11.23646  24.69337  11.94851  24.73528  11.05199  58.72782  10.33995
       1  41.75280  10.24792         40.82725  -1.200000  58.72782  10.33995  24.73528  11.05199  24.77796  10.15601  58.77051   9.44397
       1  41.79587   9.35220         40.99660  -1.200000  58.77051   9.44397  24.77796  10.15601  24.82142   9.26056  58.81396   8.54852
       1  41.83970   8.45701         41.16595  -1.200000  58.81396   8.54852  24.82142   9.26056  24.86564   8.36564  58.85818   7.65360
       1  41.88431   7.56236         41.33531  -1.200000  58.85818   7.65360  24.86564   8.36564  24.91063   7.47125  58.90318   6.75921
       1  41.92969   6.66824         41.50466  -1.200000  58.90318   6.75921  24.91063   7.47125  24.95640   6.57739  58.94894   5.86535
       1  41.97584   5.77464         41.67401  -1.200000  58.94894   5.86535  24.95640   6.57739  25.00293   5.68407  58.99547   4.97202
       1  42.02276   4.88158         41.84337  -1.200000  58.99547   4.97202  25.00293   5.68407  25.05023   4.79127  59.04278   4.07923
       1  42.07045   3.98905         42.01272  -1.200000  59.04278   4.07923  25.05023   4.79127  25.09831   3.89900  59.09085   3.18696
       1  42.11890   3.09705         42.18208  -1.200000  59.09085   3.18696  25.09831   3.89900  25.14715   3.00727  59.13969   2.29522
       1  42.16813   2.20558         42.35143  -1.200000  59.13969   2.29522  25.14715   3.00727  25.19676   2.11606  59.18931   1.40402
