\wavsamp version 5.0 (Thu May  9 10:19:35 PDT 2002)
\processing time 21:36:01 PST 12/08/2003
\character channelID = 1
| order |x_center |y_center |   wavelength   |  angle   |   x0    |   y0    |   x1    |   y1    |   x2    |   y2    |   x3    |   y3    |
| int   |  real   |  real   |    real        |   real   |  real   |  real   |  real   |  real   |  real   |  real   |  real   |  real   |
      20 120.88319 127.99667          9.89276   6.481150 123.97679 128.84219 117.76673 128.13671 117.78960 127.15115 123.99965 127.85663
      20 120.90607 127.01073          9.90037   6.481150 123.99965 127.85663 117.78960 127.15115 117.81248 126.16484 124.02254 126.87032
      20 120.92896 126.02404          9.90799   6.481150 124.02254 126.87032 117.81248 126.16484 117.83538 125.17776 124.04544 125.88324
      20 120.95187 125.03659          9.91562   6.481150 124.04544 125.88324 117.83538 125.17776 117.85830 124.18993 124.06836 124.89541
      20 120.97480 124.04837          9.92325   6.481150 124.06836 124.89541 117.85830 124.18993 117.88124 123.20134 124.09129 123.90681
      20 120.99774 123.05940          9.93088   6.481150 124.09129 123.90681 117.88124 123.20134 117.90419 122.21198 124.11425 122.91746
      20 121.02071 122.06966          9.93852   6.481150 124.11425 122.91746 117.90419 122.21198 117.92716 121.22187 124.13722 121.92734
      20 121.04369 121.07917          9.94617   6.481150 124.13722 121.92734 117.92716 121.22187 117.95015 120.23099 124.16021 120.93647
      20 121.06669 120.08791          9.95383   6.481150 124.16021 120.93647 117.95015 120.23099 117.97316 119.23935 124.18322 119.94483
      20 121.08970 119.09589          9.96149   6.481150 124.18322 119.94483 117.97316 119.23935 117.99619 118.24695 124.20624 118.95242
      20 121.11274 118.10310          9.96915   6.481150 124.20624 118.95242 117.99619 118.24695 118.01923 117.25378 124.22929 117.95926
      20 121.13579 117.10955          9.97682   6.481150 124.22929 117.95926 118.01923 117.25378 118.04229 116.25985 124.25235 116.96533
      20 121.15886 116.11524          9.98450   6.481150 124.25235 116.96533 118.04229 116.25985 118.06537 115.26515 124.27542 115.97063
      20 121.18194 115.12016          9.99218   6.481150 124.27542 115.97063 118.06537 115.26515 118.08846 114.26969 124.29852 114.97517
      20 121.20505 114.12432          9.99987   6.481150 124.29852 114.97517 118.08846 114.26969 118.11158 113.27346 124.32163 113.97894
      20 121.22817 113.12771         10.00757   6.481150 124.32163 113.97894 118.11158 113.27346 118.13471 112.27647 124.34477 112.98195
      20 121.25131 112.13033         10.01527   6.481150 124.34477 112.98195 118.13471 112.27647 118.15786 111.27871 124.36792 111.98419
      20 121.27447 111.13218         10.02298   6.481150 124.36792 111.98419 118.15786 111.27871 118.18103 110.28018 124.39108 110.98566
      20 121.29765 110.13327         10.03069   6.481150 124.39108 110.98566 118.18103 110.28018 118.20421 109.28088 124.41427 109.98636
      20 121.32084 109.13359         10.03841   6.481150 124.41427 109.98636 118.20421 109.28088 118.22741 108.28082 124.43747 108.98629
      20 121.34405 108.13314         10.04613   6.481150 124.43747 108.98629 118.22741 108.28082 118.25063 107.27998 124.46069 107.98546
      20 121.36728 107.13192         10.05386   6.481150 124.46069 107.98546 118.25063 107.27998 118.27387 106.27837 124.48393 106.98385
      20 121.39053 106.12992         10.06160   6.481150 124.48393 106.98385 118.27387 106.27837 118.29713 105.27600 124.50719 105.98147
      20 121.41379 105.12716         10.06934   6.481150 124.50719 105.98147 118.29713 105.27600 118.32040 104.27285 124.53046 104.97833
      20 121.43708 104.12363         10.07709   6.481150 124.53046 104.97833 118.32040 104.27285 118.34370 103.26893 124.55375 103.97440
      20 121.46038 103.11932         10.08485   6.481150 124.55375 103.97440 118.34370 103.26893 118.36701 102.26423 124.57706 102.96971
      20 121.48370 102.11424         10.09261   6.481150 124.57706 102.96971 118.36701 102.26423 118.39033 101.25877 124.60039 101.96425
      20 121.50704 101.10839         10.10037   6.481150 124.60039 101.96425 118.39033 101.25877 118.41368 100.25253 124.62374 100.95801
      20 121.53039 100.10176         10.10815   6.481150 124.62374 100.95801 118.41368 100.25253 118.43704  99.24552 124.64710  99.95099
      20 121.55376  99.09436         10.11592   6.481150 124.64710  99.95099 118.43704  99.24552 118.46043  98.23773 124.67048  98.94320
      20 121.57716  98.08618         10.12371   6.481150 124.67048  98.94320 118.46043  98.23773 118.48383  97.22916 124.69388  97.93464
      20 121.60056  97.07723         10.13150   6.481150 124.69388  97.93464 118.48383  97.22916 118.50724  96.21982 124.71730  96.92530
      20 121.62399  96.06750         10.13930   6.481150 124.71730  96.92530 118.50724  96.21982 118.53068  95.20970 124.74074  95.91518
      20 121.64744  95.05700         10.14710   6.481150 124.74074  95.91518 118.53068  95.20970 118.55414  94.19881 124.76419  94.90429
      20 121.67090  94.04571         10.15491   6.481150 124.76419  94.90429 118.55414  94.19881 118.57761  93.18714 124.78766  93.89261
      20 121.69438  93.03365         10.16272   6.481150 124.78766  93.89261 118.57761  93.18714 118.60110  92.17469 124.81115  92.88016
      20 121.71788  92.02081         10.17054   6.481150 124.81115  92.88016 118.60110  92.17469 118.62461  91.16146 124.83466  91.86693
      20 121.74140  91.00719         10.17837   6.481150 124.83466  91.86693 118.62461  91.16146 118.64813  90.14745 124.85819  90.85292
      20 121.76493  89.99279         10.18620   6.481150 124.85819  90.85292 118.64813  90.14745 118.67168  89.13266 124.88173  89.83813
      20 121.78849  88.97761         10.19404   6.481150 124.88173  89.83813 118.67168  89.13266 118.69524  88.11708 124.90530  88.82256
      20 121.81206  87.96165         10.20188   6.481150 124.90530  88.82256 118.69524  88.11708 118.71882  87.10073 124.92888  87.80621
      20 121.83565  86.94490         10.20973   6.481150 124.92888  87.80621 118.71882  87.10073 118.74242  86.08360 124.95248  86.78907
      20 121.85926  85.92738         10.21759   6.481150 124.95248  86.78907 118.74242  86.08360 118.76604  85.06568 124.97609  85.77116
      20 121.88288  84.90907         10.22545   6.481150 124.97609  85.77116 118.76604  85.06568 118.78967  84.04698 124.99973  84.75246
      20 121.90653  83.88998         10.23332   6.481150 124.99973  84.75246 118.78967  84.04698 118.81332  83.02749 125.02338  83.73297
      20 121.93019  82.87010         10.24120   6.481150 125.02338  83.73297 118.81332  83.02749 118.83700  82.00723 125.04705  82.71270
      20 121.95387  81.84944         10.24908   6.481150 125.04705  82.71270 118.83700  82.00723 118.86069  80.98617 125.07074  81.69165
      20 121.97757  80.82799         10.25697   6.481150 125.07074  81.69165 118.86069  80.98617 118.88439  79.96433 125.09445  80.66981
      20 122.00129  79.80576         10.26486   6.481150 125.09445  80.66981 118.88439  79.96433 118.90812  78.94170 125.11818  79.64718
      20 122.02502  78.78274         10.27276   6.481150 125.11818  79.64718 118.90812  78.94170 118.93186  77.91829 125.14192  78.62377
      20 122.04877  77.75893         10.28066   6.481150 125.14192  78.62377 118.93186  77.91829 118.95563  76.89409 125.16568  77.59957
      20 122.07255  76.73433         10.28857   6.481150 125.16568  77.59957 118.95563  76.89409 118.97941  75.86910 125.18947  76.57458
      20 122.09634  75.70895         10.29649   6.481150 125.18947  76.57458 118.97941  75.86910 119.00321  74.84332 125.21326  75.54880
      20 122.12015  74.68278         10.30441   6.481150 125.21326  75.54880 119.00321  74.84332 119.02703  73.81676 125.23708  74.52223
      20 122.14397  73.65582         10.31234   6.481150 125.23708  74.52223 119.02703  73.81676 119.05086  72.78940 125.26092  73.49488
      20 122.16782  72.62806         10.32028   6.481150 125.26092  73.49488 119.05086  72.78940 119.07472  71.76125 125.28477  72.46673
      20 122.19168  71.59952         10.32822   6.481150 125.28477  72.46673 119.07472  71.76125 119.09859  70.73231 125.30865  71.43779
      20 122.21556  70.57019         10.33617   6.481150 125.30865  71.43779 119.09859  70.73231 119.12248  69.70258 125.33254  70.40806
      20 122.23946  69.54006         10.34412   6.481150 125.33254  70.40806 119.12248  69.70258 119.14639  68.67206 125.35645  69.37754
      20 122.26338  68.50914         10.35208   6.481150 125.35645  69.37754 119.14639  68.67206 119.17032  67.64074 125.38037  68.34622
      20 122.28732  67.47743         10.36005   6.481150 125.38037  68.34622 119.17032  67.64074 119.19426  66.60863 125.40432  67.31411
      20 122.31127  66.44492         10.36802   6.481150 125.40432  67.31411 119.19426  66.60863 119.21823  65.57573 125.42829  66.28121
      20 122.33525  65.41162         10.37600   6.481150 125.42829  66.28121 119.21823  65.57573 119.24221  64.54203 125.45227  65.24751
      20 122.35924  64.37752         10.38399   6.481150 125.45227  65.24751 119.24221  64.54203 119.26621  63.50754 125.47627  64.21301
      20 122.38325  63.34263         10.39198   6.481150 125.47627  64.21301 119.26621  63.50754 119.29023  62.47225 125.50029  63.17772
      20 122.40728  62.30694         10.39997   6.481150 125.50029  63.17772 119.29023  62.47225 119.31427  61.43616 125.52433  62.14164
      20 122.43133  61.27046         10.40798   6.481150 125.52433  62.14164 119.31427  61.43616 119.33833  60.39928 125.54839  61.10475
      20 122.45540  60.23317         10.41598   6.481150 125.54839  61.10475 119.33833  60.39928 119.36240  59.36159 125.57246  60.06707
      20 122.47948  59.19509         10.42400   6.481150 125.57246  60.06707 119.36240  59.36159 119.38650  58.32311 125.59656  59.02859
      20 122.50358  58.15621         10.43202   6.481150 125.59656  59.02859 119.38650  58.32311 119.41061  57.28383 125.62067  57.98931
      20 122.52771  57.11653         10.44005   6.481150 125.62067  57.98931 119.41061  57.28383 119.43474  56.24375 125.64480  56.94923
      20 122.55185  56.07605         10.44808   6.481150 125.64480  56.94923 119.43474  56.24375 119.45889  55.20287 125.66895  55.90835
      20 122.57601  55.03477         10.45612   6.481150 125.66895  55.90835 119.45889  55.20287 119.48306  54.16119 125.69312  54.86667
      20 122.60018  53.99269         10.46417   6.481150 125.69312  54.86667 119.48306  54.16119 119.50725  53.11871 125.71730  53.82419
      20 122.62438  52.94981         10.47222   6.481150 125.71730  53.82419 119.50725  53.11871 119.53145  52.07542 125.74151  52.78090
      20 122.64859  51.90612         10.48028   6.481150 125.74151  52.78090 119.53145  52.07542 119.55568  51.03134 125.76573  51.73681
      20 122.67283  50.86163         10.48835   6.481150 125.76573  51.73681 119.55568  51.03134 119.57992  49.98645 125.78998  50.69192
      20 122.69708  49.81634         10.49642   6.481150 125.78998  50.69192 119.57992  49.98645 119.60418  48.94075 125.81424  49.64623
      20 122.72135  48.77024         10.50449   6.481150 125.81424  49.64623 119.60418  48.94075 119.62846  47.89425 125.83852  48.59973
      20 122.74564  47.72334         10.51258   6.481150 125.83852  48.59973 119.62846  47.89425 119.65276  46.84695 125.86282  47.55242
      20 122.76995  46.67563         10.52067   6.481150 125.86282  47.55242 119.65276  46.84695 119.67708  45.79884 125.88714  46.50431
      20 122.79428  45.62711         10.52876   6.481150 125.88714  46.50431 119.67708  45.79884 119.70142  44.74992 125.91147  45.45539
      20 122.81862  44.57779         10.53687   6.481150 125.91147  45.45539 119.70142  44.74992 119.72577  43.70019 125.93583  44.40567
      20 122.84299  43.52767         10.54497   6.481150 125.93583  44.40567 119.72577  43.70019 119.75014  42.64966 125.96020  43.35514
      20 122.86737  42.47673         10.55309   6.481150 125.96020  43.35514 119.75014  42.64966 119.77454  41.59832 125.98459  42.30380
      20 122.89177  41.42498         10.56121   6.481150 125.98459  42.30380 119.77454  41.59832 119.79895  40.54617 126.00900  41.25165
      20 122.91619  40.37243         10.56934   6.481150 126.00900  41.25165 119.79895  40.54617 119.82338  39.49321 126.03343  40.19869
      20 122.94063  39.31906         10.57747   6.481150 126.03343  40.19869 119.82338  39.49321 119.84783  38.43944 126.05788  39.14492
      20 122.96509  38.26489         10.58561   6.481150 126.05788  39.14492 119.84783  38.43944 119.87229  37.38486 126.08235  38.09034
      20 122.98957  37.20990         10.59376   6.481150 126.08235  38.09034 119.87229  37.38486 119.89678  36.32947 126.10684  37.03494
      20 123.01406  36.15410         10.60191   6.481150 126.10684  37.03494 119.89678  36.32947 119.92129  35.27326 126.13134  35.97874
      20 123.03858  35.09749         10.61007   6.481150 126.13134  35.97874 119.92129  35.27326 119.94581  34.21624 126.15587  34.92172
      20 123.06311  34.04007         10.61823   6.481150 126.15587  34.92172 119.94581  34.21624 119.97035  33.15841 126.18041  33.86389
      20 123.08766  32.98183         10.62640   6.481150 126.18041  33.86389 119.97035  33.15841 119.99492  32.09977 126.20497  32.80525
      20 123.11223  31.92278         10.63458   6.481150 126.20497  32.80525 119.99492  32.09977 120.01950  31.04031 126.22955  31.74579
      20 123.13682  30.86291         10.64276   6.481150 126.22955  31.74579 120.01950  31.04031 120.04410  29.98004 126.25415  30.68551
      20 123.16143  29.80223         10.65095   6.481150 126.25415  30.68551 120.04410  29.98004 120.06872  28.91894 126.27877  29.62442
      20 123.18606  28.74073         10.65915   6.481150 126.27877  29.62442 120.06872  28.91894 120.09335  27.85704 126.30341  28.56251
      20 123.21071  27.67841         10.66735   6.481150 126.30341  28.56251 120.09335  27.85704 120.11801  26.79431 126.32807  27.49979
      20 123.23538  26.61528         10.67556   6.481150 126.32807  27.49979 120.11801  26.79431 120.14268  25.73077 126.35274  26.43625
      20 123.26006  25.55133         10.68378   6.481150 126.35274  26.43625 120.14268  25.73077 120.16738  24.66641 126.37744  25.37189
      20 123.28476  24.48656         10.69200   6.481150 126.37744  25.37189 120.16738  24.66641 120.19209  23.60123 126.40215  24.30671
      20 123.30949  23.42097         10.70022   6.481150 126.40215  24.30671 120.19209  23.60123 120.21683  22.53523 126.42688  23.24071
      20 123.33423  22.35456         10.70846   6.481150 126.42688  23.24071 120.21683  22.53523 120.24158  21.46841 126.45163  22.17389
      20 123.35899  21.28733         10.71670   6.481150 126.45163  22.17389 120.24158  21.46841 120.26635  20.40077 126.47640  21.10625
      20 123.38377  20.21928         10.72495   6.481150 126.47640  21.10625 120.26635  20.40077 120.29114  19.33231 126.50119  20.03779
      20 123.40857  19.15041         10.73320   6.481150 126.50119  20.03779 120.29114  19.33231 120.31595  18.26303 126.52600  18.96850
      20 123.43339  18.08071         10.74146   6.481150 126.52600  18.96850 120.31595  18.26303 120.34077  17.19292 126.55083  17.89839
      20 123.45823  17.01019         10.74972   6.481150 126.55083  17.89839 120.34077  17.19292 120.36562  16.12199 126.57568  16.82746
      20 123.48308  15.93885         10.75800   6.481150 126.57568  16.82746 120.36562  16.12199 120.39049  15.05023 126.60054  15.75571
      20 123.50796  14.86668         10.76628   6.481150 126.60054  15.75571 120.39049  15.05023 120.41537  13.97765 126.62543  14.68313
      20 123.53285  13.79369         10.77456   6.481150 126.62543  14.68313 120.41537  13.97765 120.44028  12.90425 126.65033  13.60973
      20 123.55777  12.71987         10.78285   6.481150 126.65033  13.60973 120.44028  12.90425 120.46520  11.83002 126.67526  12.53549
      20 123.58270  11.64523         10.79115   6.481150 126.67526  12.53549 120.46520  11.83002 120.49014  10.75496 126.70020  11.46044
      20 123.60765  10.56976         10.79945   6.481150 126.70020  11.46044 120.49014  10.75496 120.51511   9.67908 126.72516  10.38455
      20 123.63262   9.49346         10.80776   6.481150 126.72516  10.38455 120.51511   9.67908 120.54009   8.60236 126.75014   9.30784
      20 123.65762   8.41633         10.81608   6.481150 126.75014   9.30784 120.54009   8.60236 120.56509   7.52482 126.77514   8.23030
      20 123.68263   7.33837         10.82440   6.481150 126.77514   8.23030 120.56509   7.52482 120.59011   6.44645 126.80016   7.15193
      20 123.70765   6.25959         10.83273   6.481150 126.80016   7.15193 120.59011   6.44645 120.61515   5.36725 126.82520   6.07273
      20 123.73270   5.17997         10.84107   6.481150 126.82520   6.07273 120.61515   5.36725 120.64020   4.28722 126.85026   4.99270
      20 123.75777   4.09953         10.84941   6.481150 126.85026   4.99270 120.64020   4.28722 120.66528   3.20636 126.87534   3.91183
      20 123.78286   3.01825         10.85776   6.481150 126.87534   3.91183 120.66528   3.20636 120.69038   2.12466 126.90043   2.83014
      20 123.80796   1.93614         10.86612   6.481150 126.90043   2.83014 120.69038   2.12466 120.71549   1.04214 126.92555   1.74761
      20 123.83309   0.85320         10.87448   6.481150 126.92555   1.74761 120.71549   1.04214 120.74063  -0.04122 126.95069   0.66426
      19 113.77055 127.53637         10.38399   6.669800 116.86568 128.36863 110.65798 127.64271 110.67541 126.70412 116.88311 127.43004
      19 113.78798 126.59743         10.39198   6.669800 116.88311 127.43004 110.67541 126.70412 110.69284 125.76481 116.90054 126.49073
      19 113.80542 125.65775         10.39997   6.669800 116.90054 126.49073 110.69284 125.76481 110.71029 124.82478 116.91799 125.55070
      19 113.82288 124.71736         10.40798   6.669800 116.91799 125.55070 110.71029 124.82478 110.72776 123.88402 116.93546 124.60994
      19 113.84035 123.77624         10.41598   6.669800 116.93546 124.60994 110.72776 123.88402 110.74524 122.94254 116.95294 123.66846
      19 113.85783 122.83440         10.42400   6.669800 116.95294 123.66846 110.74524 122.94254 110.76273 122.00034 116.97043 122.72626
      19 113.87533 121.89183         10.43202   6.669800 116.97043 122.72626 110.76273 122.00034 110.78023 121.05741 116.98793 121.78333
      19 113.89284 120.94854         10.44005   6.669800 116.98793 121.78333 110.78023 121.05741 110.79775 120.11375 117.00545 120.83967
      19 113.91036 120.00452         10.44808   6.669800 117.00545 120.83967 110.79775 120.11375 110.81528 119.16937 117.02298 119.89529
      19 113.92790 119.05978         10.45612   6.669800 117.02298 119.89529 110.81528 119.16937 110.83282 118.22426 117.04052 118.95018
      19 113.94545 118.11431         10.46417   6.669800 117.04052 118.95018 110.83282 118.22426 110.85038 117.27843 117.05808 118.00435
      19 113.96302 117.16811         10.47222   6.669800 117.05808 118.00435 110.85038 117.27843 110.86795 116.33187 117.07565 117.05779
      19 113.98059 116.22118         10.48028   6.669800 117.07565 117.05779 110.86795 116.33187 110.88554 115.38457 117.09324 116.11049
      19 113.99819 115.27352         10.48835   6.669800 117.09324 116.11049 110.88554 115.38457 110.90314 114.43655 117.11084 115.16247
      19 114.01579 114.32514         10.49642   6.669800 117.11084 115.16247 110.90314 114.43655 110.92075 113.48780 117.12845 114.21372
      19 114.03341 113.37602         10.50449   6.669800 117.12845 114.21372 110.92075 113.48780 110.93837 112.53832 117.14607 113.26424
      19 114.05104 112.42618         10.51258   6.669800 117.14607 113.26424 110.93837 112.53832 110.95601 111.58811 117.16371 112.31403
      19 114.06869 111.47560         10.52067   6.669800 117.16371 112.31403 110.95601 111.58811 110.97367 110.63717 117.18137 111.36309
      19 114.08635 110.52430         10.52876   6.669800 117.18137 111.36309 110.97367 110.63717 110.99133 109.68550 117.19903 110.41142
      19 114.10402 109.57226         10.53687   6.669800 117.19903 110.41142 110.99133 109.68550 111.00901 108.73309 117.21671 109.45901
      19 114.12171 108.61948         10.54497   6.669800 117.21671 109.45901 111.00901 108.73309 111.02671 107.77995 117.23441 108.50587
      19 114.13941 107.66598         10.55309   6.669800 117.23441 108.50587 111.02671 107.77995 111.04441 106.82608 117.25211 107.55200
      19 114.15712 106.71174         10.56121   6.669800 117.25211 107.55200 111.04441 106.82608 111.06213 105.87147 117.26983 106.59740
      19 114.17485 105.75676         10.56934   6.669800 117.26983 106.59740 111.06213 105.87147 111.07987 104.91613 117.28757 105.64205
      19 114.19259 104.80106         10.57747   6.669800 117.28757 105.64205 111.07987 104.91613 111.09762 103.96006 117.30532 104.68598
      19 114.21035 103.84461         10.58561   6.669800 117.30532 104.68598 111.09762 103.96006 111.11538 103.00325 117.32308 103.72917
      19 114.22812 102.88743         10.59376   6.669800 117.32308 103.72917 111.11538 103.00325 111.13315 102.04570 117.34085 102.77162
      19 114.24590 101.92952         10.60191   6.669800 117.34085 102.77162 111.13315 102.04570 111.15094 101.08741 117.35864 101.81333
      19 114.26369 100.97086         10.61007   6.669800 117.35864 101.81333 111.15094 101.08741 111.16874 100.12839 117.37644 100.85431
      19 114.28150 100.01147         10.61823   6.669800 117.37644 100.85431 111.16874 100.12839 111.18656  99.16863 117.39426  99.89455
      19 114.29933  99.05134         10.62640   6.669800 117.39426  99.89455 111.18656  99.16863 111.20439  98.20813 117.41209  98.93405
      19 114.31716  98.09047         10.63458   6.669800 117.41209  98.93405 111.20439  98.20813 111.22224  97.24689 117.42994  97.97281
      19 114.33501  97.12886         10.64276   6.669800 117.42994  97.97281 111.22224  97.24689 111.24009  96.28492 117.44779  97.01084
      19 114.35288  96.16652         10.65095   6.669800 117.44779  97.01084 111.24009  96.28492 111.25796  95.32220 117.46566  96.04812
      19 114.37076  95.20343         10.65915   6.669800 117.46566  96.04812 111.25796  95.32220 111.27585  94.35874 117.48355  95.08466
      19 114.38865  94.23960         10.66735   6.669800 117.48355  95.08466 111.27585  94.35874 111.29375  93.39454 117.50145  94.12046
      19 114.40655  93.27503         10.67556   6.669800 117.50145  94.12046 111.29375  93.39454 111.31166  92.42960 117.51936  93.15552
      19 114.42447  92.30971         10.68378   6.669800 117.51936  93.15552 111.31166  92.42960 111.32959  91.46391 117.53729  92.18983
      19 114.44241  91.34366         10.69200   6.669800 117.53729  92.18983 111.32959  91.46391 111.34753  90.49748 117.55523  91.22340
      19 114.46035  90.37686         10.70022   6.669800 117.55523  91.22340 111.34753  90.49748 111.36548  89.53031 117.57318  90.25623
      19 114.47832  89.40931         10.70846   6.669800 117.57318  90.25623 111.36548  89.53031 111.38345  88.56240 117.59115  89.28832
      19 114.49629  88.44103         10.71670   6.669800 117.59115  89.28832 111.38345  88.56240 111.40143  87.59373 117.60913  88.31965
      19 114.51428  87.47199         10.72495   6.669800 117.60913  88.31965 111.40143  87.59373 111.41943  86.62433 117.62713  87.35025
      19 114.53228  86.50221         10.73320   6.669800 117.62713  87.35025 111.41943  86.62433 111.43744  85.65418 117.64514  86.38010
      19 114.55030  85.53169         10.74146   6.669800 117.64514  86.38010 111.43744  85.65418 111.45546  84.68328 117.66316  85.40920
      19 114.56833  84.56041         10.74972   6.669800 117.66316  85.40920 111.45546  84.68328 111.47350  83.71163 117.68120  84.43755
      19 114.58637  83.58840         10.75800   6.669800 117.68120  84.43755 111.47350  83.71163 111.49155  82.73924 117.69925  83.46516
      19 114.60443  82.61563         10.76628   6.669800 117.69925  83.46516 111.49155  82.73924 111.50961  81.76610 117.71731  82.49202
      19 114.62250  81.64211         10.77456   6.669800 117.71731  82.49202 111.50961  81.76610 111.52769  80.79221 117.73539  81.51813
      19 114.64059  80.66785         10.78285   6.669800 117.73539  81.51813 111.52769  80.79221 111.54578  79.81757 117.75348  80.54349
      19 114.65869  79.69283         10.79115   6.669800 117.75348  80.54349 111.54578  79.81757 111.56389  78.84218 117.77159  79.56810
      19 114.67680  78.71707         10.79945   6.669800 117.77159  79.56810 111.56389  78.84218 111.58201  77.86603 117.78971  78.59195
      19 114.69493  77.74055         10.80776   6.669800 117.78971  78.59195 111.58201  77.86603 111.60015  76.88914 117.80785  77.61506
      19 114.71307  76.76328         10.81608   6.669800 117.80785  77.61506 111.60015  76.88914 111.61829  75.91150 117.82599  76.63742
      19 114.73122  75.78526         10.82440   6.669800 117.82599  76.63742 111.61829  75.91150 111.63646  74.93310 117.84416  75.65902
      19 114.74939  74.80649         10.83273   6.669800 117.84416  75.65902 111.63646  74.93310 111.65463  73.95395 117.86233  74.67987
      19 114.76758  73.82696         10.84107   6.669800 117.86233  74.67987 111.65463  73.95395 111.67282  72.97405 117.88052  73.69997
      19 114.78578  72.84668         10.84941   6.669800 117.88052  73.69997 111.67282  72.97405 111.69103  71.99340 117.89873  72.71932
      19 114.80399  71.86565         10.85776   6.669800 117.89873  72.71932 111.69103  71.99340 111.70925  71.01198 117.91695  71.73790
      19 114.82221  70.88386         10.86612   6.669800 117.91695  71.73790 111.70925  71.01198 111.72748  70.02982 117.93518  70.75574
      19 114.84045  69.90132         10.87448   6.669800 117.93518  70.75574 111.72748  70.02982 111.74572  69.04690 117.95342  69.77282
      19 114.85870  68.91802         10.88285   6.669800 117.95342  69.77282 111.74572  69.04690 111.76398  68.06322 117.97168  68.78914
      19 114.87697  67.93396         10.89122   6.669800 117.97168  68.78914 111.76398  68.06322 111.78226  67.07878 117.98996  67.80470
      19 114.89525  66.94915         10.89960   6.669800 117.98996  67.80470 111.78226  67.07878 111.80055  66.09359 118.00825  66.81951
      19 114.91355  65.96357         10.90799   6.669800 118.00825  66.81951 111.80055  66.09359 111.81885  65.10764 118.02655  65.83356
      19 114.93186  64.97724         10.91638   6.669800 118.02655  65.83356 111.81885  65.10764 111.83717  64.12093 118.04487  64.84685
      19 114.95018  63.99015         10.92478   6.669800 118.04487  64.84685 111.83717  64.12093 111.85550  63.13346 118.06320  63.85938
      19 114.96852  63.00231         10.93319   6.669800 118.06320  63.85938 111.85550  63.13346 111.87384  62.14523 118.08154  62.87115
      19 114.98687  62.01370         10.94160   6.669800 118.08154  62.87115 111.87384  62.14523 111.89220  61.15624 118.09990  61.88216
      19 115.00524  61.02433         10.95002   6.669800 118.09990  61.88216 111.89220  61.15624 111.91058  60.16649 118.11828  60.89241
      19 115.02362  60.03419         10.95845   6.669800 118.11828  60.89241 111.91058  60.16649 111.92896  59.17598 118.13666  59.90190
      19 115.04201  59.04330         10.96688   6.669800 118.13666  59.90190 111.92896  59.17598 111.94736  58.18470 118.15506  58.91062
      19 115.06042  58.05165         10.97532   6.669800 118.15506  58.91062 111.94736  58.18470 111.96578  57.19267 118.17348  57.91859
      19 115.07884  57.05923         10.98377   6.669800 118.17348  57.91859 111.96578  57.19267 111.98421  56.19987 118.19191  56.92579
      19 115.09728  56.06604         10.99222   6.669800 118.19191  56.92579 111.98421  56.19987 112.00265  55.20630 118.21035  55.93222
      19 115.11573  55.07210         11.00068   6.669800 118.21035  55.93222 112.00265  55.20630 112.02111  54.21197 118.22881  54.93789
      19 115.13420  54.07739         11.00914   6.669800 118.22881  54.93789 112.02111  54.21197 112.03958  53.21688 118.24728  53.94280
      19 115.15268  53.08191         11.01762   6.669800 118.24728  53.94280 112.03958  53.21688 112.05807  52.22102 118.26577  52.94694
      19 115.17117  52.08566         11.02609   6.669800 118.26577  52.94694 112.05807  52.22102 112.07657  51.22439 118.28427  51.95031
      19 115.18968  51.08865         11.03458   6.669800 118.28427  51.95031 112.07657  51.22439 112.09509  50.22700 118.30279  50.95292
      19 115.20820  50.09088         11.04307   6.669800 118.30279  50.95292 112.09509  50.22700 112.11362  49.22884 118.32132  49.95476
      19 115.22674  49.09233         11.05157   6.669800 118.32132  49.95476 112.11362  49.22884 112.13216  48.22991 118.33986  48.95583
      19 115.24529  48.09302         11.06007   6.669800 118.33986  48.95583 112.13216  48.22991 112.15072  47.23021 118.35842  47.95613
      19 115.26385  47.09294         11.06858   6.669800 118.35842  47.95613 112.15072  47.23021 112.16929  46.22974 118.37699  46.95566
      19 115.28243  46.09209         11.07710   6.669800 118.37699  46.95566 112.16929  46.22974 112.18788  45.22851 118.39558  45.95443
      19 115.30103  45.09046         11.08563   6.669800 118.39558  45.95443 112.18788  45.22851 112.20648  44.22650 118.41418  44.95242
      19 115.31963  44.08807         11.09416   6.669800 118.41418  44.95242 112.20648  44.22650 112.22509  43.22372 118.43279  43.94964
      19 115.33826  43.08491         11.10269   6.669800 118.43279  43.94964 112.22509  43.22372 112.24372  42.22017 118.45142  42.94609
      19 115.35689  42.08097         11.11124   6.669800 118.45142  42.94609 112.24372  42.22017 112.26236  41.21585 118.47006  41.94177
      19 115.37554  41.07626         11.11979   6.669800 118.47006  41.94177 112.26236  41.21585 112.28102  40.21075 118.48872  40.93667
      19 115.39421  40.07078         11.12835   6.669800 118.48872  40.93667 112.28102  40.21075 112.29970  39.20488 118.50740  39.93081
      19 115.41289  39.06452         11.13691   6.669800 118.50740  39.93081 112.29970  39.20488 112.31838  38.19824 118.52608  38.92416
      19 115.43158  38.05749         11.14548   6.669800 118.52608  38.92416 112.31838  38.19824 112.33708  37.19082 118.54478  37.91675
      19 115.45029  37.04969         11.15406   6.669800 118.54478  37.91675 112.33708  37.19082 112.35580  36.18263 118.56350  36.90855
      19 115.46901  36.04111         11.16264   6.669800 118.56350  36.90855 112.35580  36.18263 112.37453  35.17366 118.58223  35.89958
      19 115.48775  35.03175         11.17123   6.669800 118.58223  35.89958 112.37453  35.17366 112.39327  34.16392 118.60097  34.88984
      19 115.50650  34.02162         11.17983   6.669800 118.60097  34.88984 112.39327  34.16392 112.41203  33.15340 118.61973  33.87932
      19 115.52527  33.01071         11.18843   6.669800 118.61973  33.87932 112.41203  33.15340 112.43080  32.14210 118.63850  32.86802
      19 115.54405  31.99902         11.19704   6.669800 118.63850  32.86802 112.43080  32.14210 112.44959  31.13002 118.65729  31.85594
      19 115.56284  30.98655         11.20566   6.669800 118.65729  31.85594 112.44959  31.13002 112.46839  30.11716 118.67609  30.84308
      19 115.58165  29.97331         11.21428   6.669800 118.67609  30.84308 112.46839  30.11716 112.48721  29.10353 118.69491  29.82945
      19 115.60048  28.95928         11.22291   6.669800 118.69491  29.82945 112.48721  29.10353 112.50604  28.08911 118.71374  28.81503
      19 115.61931  27.94447         11.23154   6.669800 118.71374  28.81503 112.50604  28.08911 112.52489  27.07392 118.73259  27.79984
      19 115.63817  26.92889         11.24019   6.669800 118.73259  27.79984 112.52489  27.07392 112.54375  26.05794 118.75145  26.78386
      19 115.65704  25.91252         11.24884   6.669800 118.75145  26.78386 112.54375  26.05794 112.56262  25.04118 118.77032  25.76710
      19 115.67592  24.89537         11.25749   6.669800 118.77032  25.76710 112.56262  25.04118 112.58151  24.02364 118.78921  24.74956
      19 115.69481  23.87743         11.26616   6.669800 118.78921  24.74956 112.58151  24.02364 112.60042  23.00531 118.80812  23.73123
      19 115.71372  22.85872         11.27483   6.669800 118.80812  23.73123 112.60042  23.00531 112.61933  21.98620 118.82703  22.71212
      19 115.73265  21.83922         11.28350   6.669800 118.82703  22.71212 112.61933  21.98620 112.63827  20.96631 118.84597  21.69223
      19 115.75159  20.81893         11.29218   6.669800 118.84597  21.69223 112.63827  20.96631 112.65721  19.94563 118.86491  20.67155
      19 115.77054  19.79786         11.30087   6.669800 118.86491  20.67155 112.65721  19.94563 112.67618  18.92417 118.88388  19.65009
      19 115.78951  18.77600         11.30957   6.669800 118.88388  19.65009 112.67618  18.92417 112.69515  17.90192 118.90285  18.62784
      19 115.80850  17.75336         11.31827   6.669800 118.90285  18.62784 112.69515  17.90192 112.71414  16.87888 118.92184  17.60480
      19 115.82750  16.72993         11.32698   6.669800 118.92184  17.60480 112.71414  16.87888 112.73315  15.85506 118.94085  16.58098
      19 115.84651  15.70571         11.33570   6.669800 118.94085  16.58098 112.73315  15.85506 112.75217  14.83045 118.95987  15.55637
      19 115.86554  14.68071         11.34442   6.669800 118.95987  15.55637 112.75217  14.83045 112.77120  13.80505 118.97890  14.53097
      19 115.88458  13.65492         11.35315   6.669800 118.97890  14.53097 112.77120  13.80505 112.79025  12.77886 118.99795  13.50478
      19 115.90364  12.62833         11.36189   6.669800 118.99795  13.50478 112.79025  12.77886 112.80932  11.75188 119.01702  12.47780
      19 115.92271  11.60096         11.37063   6.669800 119.01702  12.47780 112.80932  11.75188 112.82840  10.72411 119.03610  11.45003
      19 115.94179  10.57279         11.37938   6.669800 119.03610  11.45003 112.82840  10.72411 112.84749   9.69556 119.05519  10.42148
      19 115.96089   9.54384         11.38814   6.669800 119.05519  10.42148 112.84749   9.69556 112.86660   8.66620 119.07430   9.39212
      19 115.98001   8.51409         11.39690   6.669800 119.07430   9.39212 112.86660   8.66620 112.88572   7.63606 119.09342   8.36198
      19 115.99914   7.48355         11.40567   6.669800 119.09342   8.36198 112.88572   7.63606 112.90486   6.60513 119.11256   7.33105
      19 116.01829   6.45222         11.41445   6.669800 119.11256   7.33105 112.90486   6.60513 112.92401   5.57340 119.13171   6.29932
      19 116.03745   5.42009         11.42323   6.669800 119.13171   6.29932 112.92401   5.57340 112.94318   4.54087 119.15088   5.26679
      19 116.05662   4.38717         11.43202   6.669800 119.15088   5.26679 112.94318   4.54087 112.96236   3.50756 119.17006   4.23348
      19 116.07581   3.35346         11.44082   6.669800 119.17006   4.23348 112.96236   3.50756 112.98156   2.47344 119.18926   3.19936
      19 116.09501   2.31895         11.44963   6.669800 119.18926   3.19936 112.98156   2.47344 113.00077   1.43853 119.20847   2.16445
      19 116.11423   1.28364         11.45844   6.669800 119.20847   2.16445 113.00077   1.43853 113.02000   0.40283 119.22770   1.12875
      19 116.13347   0.24754         11.46725   6.669800 119.22770   1.12875 113.02000   0.40283 113.03924  -0.63367 119.24694   0.09225
      18 105.95982 127.54589         10.92478   6.940260 109.05626 128.38809 102.85206 127.63287 102.86338 126.70368 109.06758 127.45890
      18 105.97114 126.61634         10.93319   6.940260 109.06758 127.45890 102.86338 126.70368 102.87471 125.77378 109.07891 126.52900
      18 105.98248 125.68608         10.94160   6.940260 109.07891 126.52900 102.87471 125.77378 102.88604 124.84316 109.09025 125.59838
      18 105.99382 124.75510         10.95002   6.940260 109.09025 125.59838 102.88604 124.84316 102.89739 123.91183 109.10159 124.66704
      18 106.00517 123.82341         10.95845   6.940260 109.10159 124.66704 102.89739 123.91183 102.90875 122.97978 109.11295 123.73499
      18 106.01653 122.89100         10.96688   6.940260 109.11295 123.73499 102.90875 122.97978 102.92011 122.04701 109.12431 122.80222
      18 106.02790 121.95787         10.97532   6.940260 109.12431 122.80222 102.92011 122.04701 102.93148 121.11352 109.13569 121.86874
      18 106.03927 121.02403         10.98377   6.940260 109.13569 121.86874 102.93148 121.11352 102.94286 120.17932 109.14707 120.93453
      18 106.05066 120.08946         10.99222   6.940260 109.14707 120.93453 102.94286 120.17932 102.95425 119.24439 109.15846 119.99961
      18 106.06206 119.15418         11.00068   6.940260 109.15846 119.99961 102.95425 119.24439 102.96565 118.30875 109.16986 119.06397
      18 106.07346 118.21818         11.00914   6.940260 109.16986 119.06397 102.96565 118.30875 102.97706 117.37239 109.18126 118.12760
      18 106.08487 117.28145         11.01762   6.940260 109.18126 118.12760 102.97706 117.37239 102.98848 116.43531 109.19268 117.19052
      18 106.09629 116.34401         11.02609   6.940260 109.19268 117.19052 102.98848 116.43531 102.99990 115.49750 109.20411 116.25272
      18 106.10772 115.40584         11.03458   6.940260 109.20411 116.25272 102.99990 115.49750 103.01134 114.55897 109.21554 115.31419
      18 106.11916 114.46696         11.04307   6.940260 109.21554 115.31419 103.01134 114.55897 103.02278 113.61973 109.22698 114.37494
      18 106.13061 113.52735         11.05157   6.940260 109.22698 114.37494 103.02278 113.61973 103.03423 112.67975 109.23843 113.43497
      18 106.14206 112.58701         11.06007   6.940260 109.23843 113.43497 103.03423 112.67975 103.04569 111.73906 109.24990 112.49427
      18 106.15353 111.64596         11.06858   6.940260 109.24990 112.49427 103.04569 111.73906 103.05716 110.79764 109.26136 111.55286
      18 106.16500 110.70418         11.07710   6.940260 109.26136 111.55286 103.05716 110.79764 103.06864 109.85550 109.27284 110.61071
      18 106.17648 109.76167         11.08563   6.940260 109.27284 110.61071 103.06864 109.85550 103.08013 108.91263 109.28433 109.66785
      18 106.18798 108.81844         11.09416   6.940260 109.28433 109.66785 103.08013 108.91263 103.09162 107.96904 109.29583 108.72425
      18 106.19948 107.87448         11.10269   6.940260 109.29583 108.72425 103.09162 107.96904 103.10313 107.02472 109.30733 107.77993
      18 106.21098 106.92980         11.11124   6.940260 109.30733 107.77993 103.10313 107.02472 103.11464 106.07967 109.31884 106.83489
      18 106.22250 105.98439         11.11979   6.940260 109.31884 106.83489 103.11464 106.07967 103.12616 105.13390 109.33037 105.88911
      18 106.23403 105.03825         11.12835   6.940260 109.33037 105.88911 103.12616 105.13390 103.13769 104.18740 109.34190 104.94261
      18 106.24557 104.09139         11.13691   6.940260 109.34190 104.94261 103.13769 104.18740 103.14923 103.24017 109.35344 103.99538
      18 106.25711 103.14379         11.14548   6.940260 109.35344 103.99538 103.14923 103.24017 103.16078 102.29221 109.36499 103.04742
      18 106.26866 102.19547         11.15406   6.940260 109.36499 103.04742 103.16078 102.29221 103.17234 101.34352 109.37654 102.09873
      18 106.28023 101.24642         11.16264   6.940260 109.37654 102.09873 103.17234 101.34352 103.18391 100.39410 109.38811 101.14932
      18 106.29180 100.29663         11.17123   6.940260 109.38811 101.14932 103.18391 100.39410 103.19548  99.44395 109.39969 100.19917
      18 106.30338  99.34612         11.17983   6.940260 109.39969 100.19917 103.19548  99.44395 103.20707  98.49307 109.41127  99.24829
      18 106.31497  98.39487         11.18843   6.940260 109.41127  99.24829 103.20707  98.49307 103.21866  97.54146 109.42287  98.29668
      18 106.32656  97.44290         11.19704   6.940260 109.42287  98.29668 103.21866  97.54146 103.23026  96.58912 109.43447  97.34433
      18 106.33817  96.49019         11.20566   6.940260 109.43447  97.34433 103.23026  96.58912 103.24187  95.63604 109.44608  96.39126
      18 106.34979  95.53674         11.21428   6.940260 109.44608  96.39126 103.24187  95.63604 103.25349  94.68223 109.45770  95.43745
      18 106.36141  94.58257         11.22291   6.940260 109.45770  95.43745 103.25349  94.68223 103.26512  93.72769 109.46933  94.48290
      18 106.37305  93.62765         11.23154   6.940260 109.46933  94.48290 103.26512  93.72769 103.27676  92.77241 109.48097  93.52762
      18 106.38469  92.67201         11.24019   6.940260 109.48097  93.52762 103.27676  92.77241 103.28841  91.81639 109.49261  92.57161
      18 106.39634  91.71563         11.24884   6.940260 109.49261  92.57161 103.28841  91.81639 103.30007  90.85964 109.50427  91.61486
      18 106.40800  90.75851         11.25749   6.940260 109.50427  91.61486 103.30007  90.85964 103.31173  89.90216 109.51593  90.65737
      18 106.41967  89.80065         11.26616   6.940260 109.51593  90.65737 103.31173  89.90216 103.32340  88.94394 109.52761  89.69915
      18 106.43135  88.84206         11.27483   6.940260 109.52761  89.69915 103.32340  88.94394 103.33509  87.98498 109.53929  88.74019
      18 106.44304  87.88273         11.28350   6.940260 109.53929  88.74019 103.33509  87.98498 103.34678  87.02528 109.55098  87.78049
      18 106.45473  86.92267         11.29218   6.940260 109.55098  87.78049 103.34678  87.02528 103.35848  86.06484 109.56269  86.82006
      18 106.46644  85.96186         11.30087   6.940260 109.56269  86.82006 103.35848  86.06484 103.37019  85.10367 109.57440  85.85888
      18 106.47815  85.00032         11.30957   6.940260 109.57440  85.85888 103.37019  85.10367 103.38191  84.14175 109.58611  84.89697
      18 106.48988  84.03803         11.31827   6.940260 109.58611  84.89697 103.38191  84.14175 103.39364  83.17910 109.59784  83.93431
      18 106.50161  83.07500         11.32698   6.940260 109.59784  83.93431 103.39364  83.17910 103.40538  82.21570 109.60958  82.97091
      18 106.51335  82.11124         11.33570   6.940260 109.60958  82.97091 103.40538  82.21570 103.41712  81.25156 109.62133  82.00678
      18 106.52510  81.14673         11.34442   6.940260 109.62133  82.00678 103.41712  81.25156 103.42888  80.28668 109.63308  81.04190
      18 106.53686  80.18148         11.35315   6.940260 109.63308  81.04190 103.42888  80.28668 103.44064  79.32106 109.64484  80.07628
      18 106.54863  79.21549         11.36189   6.940260 109.64484  80.07628 103.44064  79.32106 103.45241  78.35470 109.65662  79.10991
      18 106.56041  78.24875         11.37063   6.940260 109.65662  79.10991 103.45241  78.35470 103.46420  77.38759 109.66840  78.14280
      18 106.57219  77.28127         11.37938   6.940260 109.66840  78.14280 103.46420  77.38759 103.47599  76.41973 109.68019  77.17495
      18 106.58399  76.31304         11.38814   6.940260 109.68019  77.17495 103.47599  76.41973 103.48779  75.45114 109.69199  76.20635
      18 106.59579  75.34407         11.39690   6.940260 109.69199  76.20635 103.48779  75.45114 103.49960  74.48179 109.70380  75.23701
      18 106.60761  74.37436         11.40567   6.940260 109.70380  75.23701 103.49960  74.48179 103.51142  73.51170 109.71562  74.26692
      18 106.61943  73.40389         11.41445   6.940260 109.71562  74.26692 103.51142  73.51170 103.52324  72.54087 109.72745  73.29608
      18 106.63126  72.43269         11.42323   6.940260 109.72745  73.29608 103.52324  72.54087 103.53508  71.56929 109.73928  72.32450
      18 106.64311  71.46073         11.43202   6.940260 109.73928  72.32450 103.53508  71.56929 103.54693  70.59696 109.75113  71.35217
      18 106.65496  70.48802         11.44082   6.940260 109.75113  71.35217 103.54693  70.59696 103.55878  69.62388 109.76299  70.37909
      18 106.66682  69.51457         11.44963   6.940260 109.76299  70.37909 103.55878  69.62388 103.57065  68.65005 109.77485  69.40527
      18 106.67868  68.54037         11.45844   6.940260 109.77485  69.40527 103.57065  68.65005 103.58252  67.67547 109.78672  68.43069
      18 106.69056  67.56542         11.46725   6.940260 109.78672  68.43069 103.58252  67.67547 103.59440  66.70015 109.79861  67.45536
      18 106.70245  66.58972         11.47608   6.940260 109.79861  67.45536 103.59440  66.70015 103.60629  65.72407 109.81050  66.47928
      18 106.71435  65.61326         11.48491   6.940260 109.81050  66.47928 103.60629  65.72407 103.61819  64.74724 109.82240  65.50246
      18 106.72625  64.63606         11.49375   6.940260 109.82240  65.50246 103.61819  64.74724 103.63010  63.76966 109.83431  64.52488
      18 106.73817  63.65810         11.50259   6.940260 109.83431  64.52488 103.63010  63.76966 103.64202  62.79133 109.84623  63.54654
      18 106.75009  62.67939         11.51144   6.940260 109.84623  63.54654 103.64202  62.79133 103.65395  61.81224 109.85816  62.56746
      18 106.76202  61.69993         11.52030   6.940260 109.85816  62.56746 103.65395  61.81224 103.66589  60.83241 109.87009  61.58762
      18 106.77396  60.71972         11.52917   6.940260 109.87009  61.58762 103.66589  60.83241 103.67783  59.85181 109.88204  60.60703
      18 106.78591  59.73875         11.53804   6.940260 109.88204  60.60703 103.67783  59.85181 103.68979  58.87047 109.89399  59.62568
      18 106.79788  58.75702         11.54692   6.940260 109.89399  59.62568 103.68979  58.87047 103.70176  57.88836 109.90596  58.64358
      18 106.80984  57.77454         11.55580   6.940260 109.90596  58.64358 103.70176  57.88836 103.71373  56.90551 109.91793  57.66072
      18 106.82182  56.79131         11.56470   6.940260 109.91793  57.66072 103.71373  56.90551 103.72571  55.92189 109.92992  56.67711
      18 106.83381  55.80731         11.57360   6.940260 109.92992  56.67711 103.72571  55.92189 103.73771  54.93752 109.94191  55.69274
      18 106.84581  54.82256         11.58250   6.940260 109.94191  55.69274 103.73771  54.93752 103.74971  53.95239 109.95391  54.70761
      18 106.85782  53.83706         11.59141   6.940260 109.95391  54.70761 103.74971  53.95239 103.76172  52.96650 109.96592  53.72172
      18 106.86983  52.85079         11.60033   6.940260 109.96592  53.72172 103.76172  52.96650 103.77374  51.97986 109.97794  52.73507
      18 106.88186  51.86376         11.60926   6.940260 109.97794  52.73507 103.77374  51.97986 103.78577  50.99245 109.98997  51.74767
      18 106.89389  50.87598         11.61820   6.940260 109.98997  51.74767 103.78577  50.99245 103.79781  50.00429 110.00201  50.75950
      18 106.90593  49.88743         11.62714   6.940260 110.00201  50.75950 103.79781  50.00429 103.80986  49.01536 110.01406  49.77058
      18 106.91799  48.89813         11.63608   6.940260 110.01406  49.77058 103.80986  49.01536 103.82191  48.02568 110.02612  48.78089
      18 106.93005  47.90806         11.64504   6.940260 110.02612  48.78089 103.82191  48.02568 103.83398  47.03523 110.03818  47.79045
      18 106.94212  46.91723         11.65400   6.940260 110.03818  47.79045 103.83398  47.03523 103.84606  46.04402 110.05026  46.79924
      18 106.95420  45.92564         11.66297   6.940260 110.05026  46.79924 103.84606  46.04402 103.85814  45.05205 110.06235  45.80726
      18 106.96629  44.93329         11.67194   6.940260 110.06235  45.80726 103.85814  45.05205 103.87024  44.05931 110.07444  44.81453
      18 106.97839  43.94017         11.68092   6.940260 110.07444  44.81453 103.87024  44.05931 103.88234  43.06581 110.08654  43.82103
      18 106.99050  42.94629         11.68991   6.940260 110.08654  43.82103 103.88234  43.06581 103.89445  42.07155 110.09866  42.82676
      18 107.00262  41.95164         11.69891   6.940260 110.09866  42.82676 103.89445  42.07155 103.90657  41.07652 110.11078  41.83173
      18 107.01474  40.95623         11.70791   6.940260 110.11078  41.83173 103.90657  41.07652 103.91871  40.08072 110.12291  40.83594
      18 107.02688  39.96005         11.71692   6.940260 110.12291  40.83594 103.91871  40.08072 103.93085  39.08416 110.13505  39.83938
      18 107.03903  38.96311         11.72594   6.940260 110.13505  39.83938 103.93085  39.08416 103.94300  38.08683 110.14720  38.84205
      18 107.05118  37.96539         11.73496   6.940260 110.14720  38.84205 103.94300  38.08683 103.95516  37.08874 110.15936  37.84395
      18 107.06334  36.96691         11.74399   6.940260 110.15936  37.84395 103.95516  37.08874 103.96733  36.08987 110.17153  36.84509
      18 107.07552  35.96767         11.75303   6.940260 110.17153  36.84509 103.96733  36.08987 103.97951  35.09024 110.18371  35.84546
      18 107.08770  34.96765         11.76207   6.940260 110.18371  35.84546 103.97951  35.09024 103.99169  34.08984 110.19590  34.84505
      18 107.09989  33.96686         11.77112   6.940260 110.19590  34.84505 103.99169  34.08984 104.00389  33.08867 110.20810  33.84388
      18 107.11210  32.96530         11.78018   6.940260 110.20810  33.84388 104.00389  33.08867 104.01610  32.08673 110.22030  32.84194
      18 107.12431  31.96298         11.78925   6.940260 110.22030  32.84194 104.01610  32.08673 104.02831  31.08401 110.23252  31.83923
      18 107.13653  30.95988         11.79832   6.940260 110.23252  31.83923 104.02831  31.08401 104.04054  30.08053 110.24474  30.83574
      18 107.14876  29.95601         11.80740   6.940260 110.24474  30.83574 104.04054  30.08053 104.05277  29.07627 110.25698  29.83149
      18 107.16100  28.95136         11.81648   6.940260 110.25698  29.83149 104.05277  29.07627 104.06502  28.07124 110.26922  28.82646
      18 107.17325  27.94595         11.82558   6.940260 110.26922  28.82646 104.06502  28.07124 104.07727  27.06544 110.28148  27.82065
      18 107.18551  26.93976         11.83468   6.940260 110.28148  27.82065 104.07727  27.06544 104.08954  26.05886 110.29374  26.81408
      18 107.19777  25.93279         11.84378   6.940260 110.29374  26.81408 104.08954  26.05886 104.10181  25.05151 110.30601  25.80672
      18 107.21005  24.92505         11.85290   6.940260 110.30601  25.80672 104.10181  25.05151 104.11409  24.04338 110.31829  24.79860
      18 107.22234  23.91654         11.86202   6.940260 110.31829  24.79860 104.11409  24.04338 104.12638  23.03448 110.33059  23.78969
      18 107.23463  22.90725         11.87115   6.940260 110.33059  23.78969 104.12638  23.03448 104.13868  22.02480 110.34289  22.78002
      18 107.24694  21.89718         11.88028   6.940260 110.34289  22.78002 104.13868  22.02480 104.15099  21.01434 110.35520  21.76956
      18 107.25926  20.88634         11.88942   6.940260 110.35520  21.76956 104.15099  21.01434 104.16331  20.00311 110.36752  20.75833
      18 107.27158  19.87471         11.89857   6.940260 110.36752  20.75833 104.16331  20.00311 104.17564  18.99110 110.37985  19.74631
      18 107.28391  18.86231         11.90773   6.940260 110.37985  19.74631 104.17564  18.99110 104.18798  17.97831 110.39219  18.73352
      18 107.29626  17.84913         11.91689   6.940260 110.39219  18.73352 104.18798  17.97831 104.20033  16.96474 110.40453  17.71995
      18 107.30861  16.83517         11.92606   6.940260 110.40453  17.71995 104.20033  16.96474 104.21269  15.95039 110.41689  16.70560
      18 107.32097  15.82043         11.93524   6.940260 110.41689  16.70560 104.21269  15.95039 104.22505  14.93526 110.42926  15.69047
      18 107.33335  14.80491         11.94443   6.940260 110.42926  15.69047 104.22505  14.93526 104.23743  13.91935 110.44164  14.67456
      18 107.34573  13.78861         11.95362   6.940260 110.44164  14.67456 104.23743  13.91935 104.24982  12.90265 110.45402  13.65787
      18 107.35812  12.77152         11.96282   6.940260 110.45402  13.65787 104.24982  12.90265 104.26221  11.88518 110.46642  12.64039
      18 107.37052  11.75366         11.97202   6.940260 110.46642  12.64039 104.26221  11.88518 104.27462  10.86692 110.47882  11.62213
      18 107.38293  10.73501         11.98123   6.940260 110.47882  11.62213 104.27462  10.86692 104.28703   9.84788 110.49124  10.60309
      18 107.39535   9.71557         11.99045   6.940260 110.49124  10.60309 104.28703   9.84788 104.29946   8.82805 110.50366   9.58327
      18 107.40778   8.69535         11.99968   6.940260 110.50366   9.58327 104.29946   8.82805 104.31189   7.80744 110.51610   8.56265
      18 107.42022   7.67435         12.00892   6.940260 110.51610   8.56265 104.31189   7.80744 104.32434   6.78604 110.52854   7.54126
      18 107.43267   6.65256         12.01816   6.940260 110.52854   7.54126 104.32434   6.78604 104.33679   5.76386 110.54099   6.51907
      18 107.44512   5.62998         12.02741   6.940260 110.54099   6.51907 104.33679   5.76386 104.34925   4.74089 110.55346   5.49611
      18 107.45759   4.60662         12.03666   6.940260 110.55346   5.49611 104.34925   4.74089 104.36173   3.71713 110.56593   4.47235
      18 107.47007   3.58247         12.04592   6.940260 110.56593   4.47235 104.36173   3.71713 104.37421   2.69259 110.57841   3.44780
      18 107.48256   2.55753         12.05519   6.940260 110.57841   3.44780 104.37421   2.69259 104.38670   1.66726 110.59090   2.42247
      18 107.49505   1.53180         12.06447   6.940260 110.59090   2.42247 104.38670   1.66726 104.39920   0.64114 110.60340   1.39635
      18 107.50756   0.50529         12.07375   6.940260 110.60340   1.39635 104.39920   0.64114 104.41171  -0.38578 110.61592   0.36944
      17  97.34488 127.39573         11.65400   7.292520 100.44071 128.31179  94.24126 127.51844  94.24905 126.47966 100.44850 127.27301
      17  97.35267 126.35655         11.66297   7.292520 100.44850 127.27301  94.24905 126.47966  94.25685 125.44008 100.45629 126.23343
      17  97.36047 125.31657         11.67194   7.292520 100.45629 126.23343  94.25685 125.44008  94.26465 124.39970 100.46410 125.19305
      17  97.36828 124.27579         11.68092   7.292520 100.46410 125.19305  94.26465 124.39970  94.27246 123.35852 100.47190 124.15187
      17  97.37609 123.23421         11.68991   7.292520 100.47190 124.15187  94.27246 123.35852  94.28027 122.31654 100.47972 123.10989
      17  97.38391 122.19182         11.69891   7.292520 100.47972 123.10989  94.28027 122.31654  94.28809 121.27376 100.48754 122.06710
      17  97.39173 121.14864         11.70791   7.292520 100.48754 122.06710  94.28809 121.27376  94.29592 120.23017 100.49536 121.02352
      17  97.39956 120.10465         11.71692   7.292520 100.49536 121.02352  94.29592 120.23017  94.30375 119.18579 100.50320 119.97913
      17  97.40739 119.05986         11.72594   7.292520 100.50320 119.97913  94.30375 119.18579  94.31159 118.14059 100.51103 118.93394
      17  97.41523 118.01427         11.73496   7.292520 100.51103 118.93394  94.31159 118.14059  94.31943 117.09460 100.51888 117.88794
      17  97.42308 116.96787         11.74399   7.292520 100.51888 117.88794  94.31943 117.09460  94.32728 116.04780 100.52673 116.84114
      17  97.43093 115.92066         11.75303   7.292520 100.52673 116.84114  94.32728 116.04780  94.33514 115.00019 100.53458 115.79353
      17  97.43879 114.87265         11.76207   7.292520 100.53458 115.79353  94.33514 115.00019  94.34300 113.95177 100.54245 114.74512
      17  97.44666 113.82384         11.77112   7.292520 100.54245 114.74512  94.34300 113.95177  94.35087 112.90255 100.55032 113.69590
      17  97.45453 112.77421         11.78018   7.292520 100.55032 113.69590  94.35087 112.90255  94.35875 111.85253 100.55819 112.64587
      17  97.46241 111.72378         11.78925   7.292520 100.55819 112.64587  94.35875 111.85253  94.36663 110.80169 100.56607 111.59504
      17  97.47029 110.67254         11.79832   7.292520 100.56607 111.59504  94.36663 110.80169  94.37451 109.75005 100.57396 110.54339
      17  97.47818 109.62049         11.80740   7.292520 100.57396 110.54339  94.37451 109.75005  94.38241 108.69759 100.58185 109.49094
      17  97.48608 108.56763         11.81648   7.292520 100.58185 109.49094  94.38241 108.69759  94.39030 107.64433 100.58975 108.43767
      17  97.49398 107.51397         11.82558   7.292520 100.58975 108.43767  94.39030 107.64433  94.39821 106.59026 100.59765 107.38360
      17  97.50189 106.45949         11.83468   7.292520 100.59765 107.38360  94.39821 106.59026  94.40612 105.53537 100.60556 106.32872
      17  97.50980 105.40420         11.84378   7.292520 100.60556 106.32872  94.40612 105.53537  94.41404 104.47967 100.61348 105.27302
      17  97.51772 104.34809         11.85290   7.292520 100.61348 105.27302  94.41404 104.47967  94.42196 103.42317 100.62140 104.21651
      17  97.52565 103.29118         11.86202   7.292520 100.62140 104.21651  94.42196 103.42317  94.42989 102.36584 100.62933 103.15919
      17  97.53358 102.23345         11.87115   7.292520 100.62933 103.15919  94.42989 102.36584  94.43782 101.30771 100.63727 102.10105
      17  97.54152 101.17490         11.88028   7.292520 100.63727 102.10105  94.43782 101.30771  94.44577 100.24876 100.64521 101.04210
      17  97.54946 100.11555         11.88942   7.292520 100.64521 101.04210  94.44577 100.24876  94.45371  99.18899 100.65316  99.98234
      17  97.55741  99.05537         11.89857   7.292520 100.65316  99.98234  94.45371  99.18899  94.46167  98.12841 100.66111  98.92176
      17  97.56537  97.99439         11.90773   7.292520 100.66111  98.92176  94.46167  98.12841  94.46963  97.06702 100.66907  97.86036
      17  97.57333  96.93258         11.91689   7.292520 100.66907  97.86036  94.46963  97.06702  94.47759  96.00480 100.67704  96.79815
      17  97.58130  95.86996         11.92606   7.292520 100.67704  96.79815  94.47759  96.00480  94.48556  94.94177 100.68501  95.73512
      17  97.58927  94.80652         11.93524   7.292520 100.68501  95.73512  94.48556  94.94177  94.49354  93.87792 100.69299  94.67127
      17  97.59726  93.74226         11.94443   7.292520 100.69299  94.67127  94.49354  93.87792  94.50153  92.81325 100.70097  93.60660
      17  97.60524  92.67718         11.95362   7.292520 100.70097  93.60660  94.50153  92.81325  94.50952  91.74777 100.70896  92.54111
      17  97.61324  91.61129         11.96282   7.292520 100.70896  92.54111  94.50952  91.74777  94.51751  90.68146 100.71696  91.47481
      17  97.62124  90.54457         11.97202   7.292520 100.71696  91.47481  94.51751  90.68146  94.52552  89.61433 100.72496  90.40768
      17  97.62924  89.47703         11.98123   7.292520 100.72496  90.40768  94.52552  89.61433  94.53352  88.54639 100.73297  89.33973
      17  97.63725  88.40867         11.99045   7.292520 100.73297  89.33973  94.53352  88.54639  94.54154  87.47762 100.74098  88.27096
      17  97.64527  87.33949         11.99968   7.292520 100.74098  88.27096  94.54154  87.47762  94.54956  86.40802 100.74900  87.20137
      17  97.65330  86.26949         12.00892   7.292520 100.74900  87.20137  94.54956  86.40802  94.55759  85.33761 100.75703  86.13095
      17  97.66133  85.19866         12.01816   7.292520 100.75703  86.13095  94.55759  85.33761  94.56562  84.26637 100.76506  85.05971
      17  97.66936  84.12701         12.02741   7.292520 100.76506  85.05971  94.56562  84.26637  94.57366  83.19430 100.77310  83.98765
      17  97.67741  83.05453         12.03666   7.292520 100.77310  83.98765  94.57366  83.19430  94.58171  82.12141 100.78115  82.91476
      17  97.68545  81.98123         12.04592   7.292520 100.78115  82.91476  94.58171  82.12141  94.58976  81.04770 100.78920  81.84104
      17  97.69351  80.90710         12.05519   7.292520 100.78920  81.84104  94.58976  81.04770  94.59782  79.97316 100.79726  80.76650
      17  97.70157  79.83215         12.06447   7.292520 100.79726  80.76650  94.59782  79.97316  94.60588  78.89779 100.80533  79.69114
      17  97.70964  78.75637         12.07375   7.292520 100.80533  79.69114  94.60588  78.89779  94.61395  77.82160 100.81340  78.61494
      17  97.71771  77.67976         12.08304   7.292520 100.81340  78.61494  94.61395  77.82160  94.62203  76.74457 100.82147  77.53792
      17  97.72579  76.60232         12.09234   7.292520 100.82147  77.53792  94.62203  76.74457  94.63011  75.66672 100.82956  76.46007
      17  97.73388  75.52405         12.10165   7.292520 100.82956  76.46007  94.63011  75.66672  94.63820  74.58804 100.83764  75.38138
      17  97.74197  74.44496         12.11096   7.292520 100.83764  75.38138  94.63820  74.58804  94.64630  73.50853 100.84574  74.30187
      17  97.75007  73.36503         12.12028   7.292520 100.84574  74.30187  94.64630  73.50853  94.65440  72.42819 100.85384  73.22153
      17  97.75817  72.28427         12.12961   7.292520 100.85384  73.22153  94.65440  72.42819  94.66251  71.34701 100.86195  72.14036
      17  97.76629  71.20268         12.13894   7.292520 100.86195  72.14036  94.66251  71.34701  94.67062  70.26501 100.87006  71.05835
      17  97.77440  70.12026         12.14828   7.292520 100.87006  71.05835  94.67062  70.26501  94.67874  69.18217 100.87818  69.97551
      17  97.78253  69.03701         12.15763   7.292520 100.87818  69.97551  94.67874  69.18217  94.68687  68.09850 100.88631  68.89184
      17  97.79066  67.95292         12.16699   7.292520 100.88631  68.89184  94.68687  68.09850  94.69500  67.01399 100.89444  67.80734
      17  97.79879  66.86799         12.17635   7.292520 100.89444  67.80734  94.69500  67.01399  94.70314  65.92865 100.90258  66.72200
      17  97.80693  65.78224         12.18572   7.292520 100.90258  66.72200  94.70314  65.92865  94.71129  64.84248 100.91073  65.63582
      17  97.81508  64.69564         12.19510   7.292520 100.91073  65.63582  94.71129  64.84248  94.71944  63.75547 100.91888  64.54881
      17  97.82324  63.60821         12.20448   7.292520 100.91888  64.54881  94.71944  63.75547  94.72760  62.66762 100.92704  63.46096
      17  97.83140  62.51995         12.21387   7.292520 100.92704  63.46096  94.72760  62.66762  94.73576  61.57893 100.93520  62.37228
      17  97.83957  61.43084         12.22327   7.292520 100.93520  62.37228  94.73576  61.57893  94.74393  60.48941 100.94337  61.28276
      17  97.84774  60.34090         12.23268   7.292520 100.94337  61.28276  94.74393  60.48941  94.75211  59.39905 100.95155  60.19239
      17  97.85592  59.25012         12.24209   7.292520 100.95155  60.19239  94.75211  59.39905  94.76029  58.30785 100.95973  59.10119
      17  97.86411  58.15850         12.25151   7.292520 100.95973  59.10119  94.76029  58.30785  94.76848  57.21581 100.96792  58.00916
      17  97.87230  57.06604         12.26094   7.292520 100.96792  58.00916  94.76848  57.21581  94.77668  56.12293 100.97612  56.91628
      17  97.88050  55.97274         12.27037   7.292520 100.97612  56.91628  94.77668  56.12293  94.78488  55.02921 100.98432  55.82255
      17  97.88870  54.87860         12.27982   7.292520 100.98432  55.82255  94.78488  55.02921  94.79309  53.93465 100.99253  54.72799
      17  97.89692  53.78362         12.28927   7.292520 100.99253  54.72799  94.79309  53.93465  94.80130  52.83924 101.00074  53.63259
      17  97.90513  52.68779         12.29872   7.292520 101.00074  53.63259  94.80130  52.83924  94.80952  51.74299 101.00897  52.53634
      17  97.91336  51.59112         12.30819   7.292520 101.00897  52.53634  94.80952  51.74299  94.81775  50.64590 101.01719  51.43925
      17  97.92159  50.49361         12.31766   7.292520 101.01719  51.43925  94.81775  50.64590  94.82598  49.54797 101.02543  50.34131
      17  97.92982  49.39525         12.32714   7.292520 101.02543  50.34131  94.82598  49.54797  94.83422  48.44919 101.03367  49.24253
      17  97.93807  48.29605         12.33662   7.292520 101.03367  49.24253  94.83422  48.44919  94.84247  47.34956 101.04191  48.14290
      17  97.94632  47.19600         12.34612   7.292520 101.04191  48.14290  94.84247  47.34956  94.85072  46.24909 101.05017  47.04243
      17  97.95457  46.09510         12.35562   7.292520 101.05017  47.04243  94.85072  46.24909  94.85898  45.14777 101.05842  45.94111
      17  97.96284  44.99336         12.36513   7.292520 101.05842  45.94111  94.85898  45.14777  94.86725  44.04560 101.06669  44.83895
      17  97.97110  43.89077         12.37464   7.292520 101.06669  44.83895  94.86725  44.04560  94.87552  42.94259 101.07496  43.73593
      17  97.97938  42.78733         12.38416   7.292520 101.07496  43.73593  94.87552  42.94259  94.88380  41.83872 101.08324  42.63207
      17  97.98766  41.68304         12.39369   7.292520 101.08324  42.63207  94.88380  41.83872  94.89208  40.73401 101.09152  41.52736
      17  97.99595  40.57790         12.40323   7.292520 101.09152  41.52736  94.89208  40.73401  94.90037  39.62845 101.09982  40.42179
      17  98.00424  39.47191         12.41278   7.292520 101.09982  40.42179  94.90037  39.62845  94.90867  38.52203 101.10811  39.31538
      17  98.01254  38.36507         12.42233   7.292520 101.10811  39.31538  94.90867  38.52203  94.91697  37.41477 101.11642  38.20811
      17  98.02085  37.25738         12.43189   7.292520 101.11642  38.20811  94.91697  37.41477  94.92528  36.30665 101.12473  37.10000
      17  98.02916  36.14884         12.44145   7.292520 101.12473  37.10000  94.92528  36.30665  94.93360  35.19768 101.13304  35.99103
      17  98.03748  35.03944         12.45103   7.292520 101.13304  35.99103  94.93360  35.19768  94.94192  34.08786 101.14137  34.88120
      17  98.04581  33.92919         12.46061   7.292520 101.14137  34.88120  94.94192  34.08786  94.95025  32.97718 101.14969  33.77052
      17  98.05414  32.81809         12.47020   7.292520 101.14969  33.77052  94.95025  32.97718  94.95859  31.86565 101.15803  32.65899
      17  98.06248  31.70613         12.47979   7.292520 101.15803  32.65899  94.95859  31.86565  94.96693  30.75326 101.16637  31.54660
      17  98.07082  30.59331         12.48940   7.292520 101.16637  31.54660  94.96693  30.75326  94.97528  29.64002 101.17472  30.43336
      17  98.07918  29.47964         12.49901   7.292520 101.17472  30.43336  94.97528  29.64002  94.98363  28.52592 101.18308  29.31926
      17  98.08753  28.36511         12.50863   7.292520 101.18308  29.31926  94.98363  28.52592  94.99199  27.41096 101.19144  28.20430
      17  98.09590  27.24972         12.51825   7.292520 101.19144  28.20430  94.99199  27.41096  95.00036  26.29514 101.19980  27.08849
      17  98.10427  26.13348         12.52789   7.292520 101.19980  27.08849  95.00036  26.29514  95.00874  25.17847 101.20818  25.97181
      17  98.11265  25.01637         12.53753   7.292520 101.20818  25.97181  95.00874  25.17847  95.01712  24.06094 101.21656  24.85428
      17  98.12103  23.89841         12.54717   7.292520 101.21656  24.85428  95.01712  24.06094  95.02550  22.94254 101.22495  23.73589
      17  98.12942  22.77959         12.55683   7.292520 101.22495  23.73589  95.02550  22.94254  95.03390  21.82329 101.23334  22.61663
      17  98.13782  21.65990         12.56649   7.292520 101.23334  22.61663  95.03390  21.82329  95.04230  20.70317 101.24174  21.49652
      17  98.14622  20.53936         12.57616   7.292520 101.24174  21.49652  95.04230  20.70317  95.05070  19.58219 101.25015  20.37554
      17  98.15463  19.41795         12.58584   7.292520 101.25015  20.37554  95.05070  19.58219  95.05912  18.46035 101.25856  19.25370
      17  98.16305  18.29568         12.59553   7.292520 101.25856  19.25370  95.05912  18.46035  95.06754  17.33765 101.26698  18.13100
      17  98.17147  17.17254         12.60522   7.292520 101.26698  18.13100  95.06754  17.33765  95.07596  16.21408 101.27541  17.00743
      17  98.17990  16.04854         12.61492   7.292520 101.27541  17.00743  95.07596  16.21408  95.08439  15.08965 101.28384  15.88300
      17  98.18834  14.92368         12.62463   7.292520 101.28384  15.88300  95.08439  15.08965  95.09283  13.96435 101.29228  14.75770
      17  98.19678  13.79795         12.63434   7.292520 101.29228  14.75770  95.09283  13.96435  95.10128  12.83819 101.30072  13.63154
      17  98.20523  12.67135         12.64406   7.292520 101.30072  13.63154  95.10128  12.83819  95.10973  11.71116 101.30917  12.50451
      17  98.21368  11.54389         12.65379   7.292520 101.30917  12.50451  95.10973  11.71116  95.11819  10.58327 101.31763  11.37661
      17  98.22214  10.41555         12.66353   7.292520 101.31763  11.37661  95.11819  10.58327  95.12665   9.45450 101.32610  10.24784
      17  98.23061   9.28636         12.67328   7.292520 101.32610  10.24784  95.12665   9.45450  95.13512   8.32487 101.33457   9.11821
      17  98.23909   8.15629         12.68303   7.292520 101.33457   9.11821  95.13512   8.32487  95.14360   7.19436 101.34305   7.98771
      17  98.24757   7.02535         12.69279   7.292520 101.34305   7.98771  95.14360   7.19436  95.15209   6.06299 101.35153   6.85634
      17  98.25605   5.89354         12.70256   7.292520 101.35153   6.85634  95.15209   6.06299  95.16058   4.93075 101.36002   5.72409
      17  98.26455   4.76086         12.71233   7.292520 101.36002   5.72409  95.16058   4.93075  95.16908   3.79763 101.36852   4.59098
      17  98.27305   3.62731         12.72211   7.292520 101.36852   4.59098  95.16908   3.79763  95.17758   2.66365 101.37702   3.45699
      17  98.28156   2.49289         12.73190   7.292520 101.37702   3.45699  95.17758   2.66365  95.18609   1.52879 101.38553   2.32213
      17  98.29007   1.35759         12.74170   7.292520 101.38553   2.32213  95.18609   1.52879  95.19461   0.39305 101.39405   1.18640
      17  98.29859   0.22142         12.75151   7.292520 101.39405   1.18640  95.19461   0.39305  95.20313  -0.74355 101.40257   0.04979
      16  87.89639 127.12349         12.31766   7.726600  90.99766 128.02634  84.80441 127.18605  84.79512 126.22065  90.98837 127.06094
      16  87.88710 126.15772         12.32714   7.726600  90.98837 127.06094  84.79512 126.22065  84.78582 125.25451  90.97908 126.09480
      16  87.87780 125.19121         12.33662   7.726600  90.97908 126.09480  84.78582 125.25451  84.77652 124.28763  90.96977 125.12791
      16  87.86849 124.22396         12.34612   7.726600  90.96977 125.12791  84.77652 124.28763  84.76721 123.32000  90.96046 124.16029
      16  87.85918 123.25596         12.35562   7.726600  90.96046 124.16029  84.76721 123.32000  84.75789 122.35163  90.95115 123.19191
      16  87.84986 122.28721         12.36513   7.726600  90.95115 123.19191  84.75789 122.35163  84.74856 121.38251  90.94182 122.22280
      16  87.84053 121.31772         12.37464   7.726600  90.94182 122.22280  84.74856 121.38251  84.73923 120.41264  90.93249 121.25293
      16  87.83119 120.34748         12.38416   7.726600  90.93249 121.25293  84.73923 120.41264  84.72989 119.44203  90.92315 120.28232
      16  87.82185 119.37650         12.39369   7.726600  90.92315 120.28232  84.72989 119.44203  84.72055 118.47068  90.91380 119.31097
      16  87.81250 118.40477         12.40323   7.726600  90.91380 119.31097  84.72055 118.47068  84.71119 117.49857  90.90445 118.33886
      16  87.80314 117.43229         12.41278   7.726600  90.90445 118.33886  84.71119 117.49857  84.70183 116.52572  90.89509 117.36601
      16  87.79378 116.45907         12.42233   7.726600  90.89509 117.36601  84.70183 116.52572  84.69246 115.55212  90.88572 116.39241
      16  87.78440 115.48509         12.43189   7.726600  90.88572 116.39241  84.69246 115.55212  84.68309 114.57777  90.87634 115.41806
      16  87.77502 114.51037         12.44145   7.726600  90.87634 115.41806  84.68309 114.57777  84.67371 113.60267  90.86696 114.44296
      16  87.76564 113.53489         12.45103   7.726600  90.86696 114.44296  84.67371 113.60267  84.66432 112.62682  90.85757 113.46711
      16  87.75624 112.55867         12.46061   7.726600  90.85757 113.46711  84.66432 112.62682  84.65492 111.65022  90.84817 112.49051
      16  87.74684 111.58169         12.47020   7.726600  90.84817 112.49051  84.65492 111.65022  84.64551 110.67287  90.83877 111.51316
      16  87.73744 110.60396         12.47979   7.726600  90.83877 111.51316  84.64551 110.67287  84.63610 109.69476  90.82936 110.53505
      16  87.72802 109.62548         12.48940   7.726600  90.82936 110.53505  84.63610 109.69476  84.62668 108.71591  90.81994 109.55619
      16  87.71860 108.64625         12.49901   7.726600  90.81994 109.55619  84.62668 108.71591  84.61726 107.73630  90.81051 108.57658
      16  87.70917 107.66626         12.50863   7.726600  90.81051 108.57658  84.61726 107.73630  84.60782 106.75593  90.80108 107.59622
      16  87.69973 106.68552         12.51825   7.726600  90.80108 107.59622  84.60782 106.75593  84.59838 105.77481  90.79164 106.61510
      16  87.69029 105.70402         12.52789   7.726600  90.79164 106.61510  84.59838 105.77481  84.58894 104.79294  90.78219 105.63323
      16  87.68084 104.72177         12.53753   7.726600  90.78219 105.63323  84.58894 104.79294  84.57948 103.81031  90.77274 104.65060
      16  87.67138 103.73876         12.54717   7.726600  90.77274 104.65060  84.57948 103.81031  84.57002 102.82692  90.76327 103.66721
      16  87.66191 102.75500         12.55683   7.726600  90.76327 103.66721  84.57002 102.82692  84.56055 101.84278  90.75380 102.68307
      16  87.65244 101.77048         12.56649   7.726600  90.75380 102.68307  84.56055 101.84278  84.55107 100.85788  90.74433 101.69817
      16  87.64296 100.78520         12.57616   7.726600  90.74433 101.69817  84.55107 100.85788  84.54159  99.87222  90.73484 100.71251
      16  87.63347  99.79916         12.58584   7.726600  90.73484 100.71251  84.54159  99.87222  84.53210  98.88581  90.72535  99.72610
      16  87.62397  98.81236         12.59553   7.726600  90.72535  99.72610  84.53210  98.88581  84.52260  97.89863  90.71585  98.73892
      16  87.61447  97.82481         12.60522   7.726600  90.71585  98.73892  84.52260  97.89863  84.51309  96.91070  90.70635  97.75099
      16  87.60496  96.83649         12.61492   7.726600  90.70635  97.75099  84.51309  96.91070  84.50358  95.92200  90.69683  96.76229
      16  87.59544  95.84742         12.62463   7.726600  90.69683  96.76229  84.50358  95.92200  84.49406  94.93255  90.68731  95.77284
      16  87.58592  94.85758         12.63434   7.726600  90.68731  95.77284  84.49406  94.93255  84.48453  93.94233  90.67778  94.78262
      16  87.57639  93.86698         12.64406   7.726600  90.67778  94.78262  84.48453  93.94233  84.47499  92.95135  90.66825  93.79164
      16  87.56685  92.87562         12.65379   7.726600  90.66825  93.79164  84.47499  92.95135  84.46545  91.95961  90.65871  92.79990
      16  87.55730  91.88350         12.66353   7.726600  90.65871  92.79990  84.46545  91.95961  84.45590  90.96710  90.64916  91.80739
      16  87.54775  90.89061         12.67328   7.726600  90.64916  91.80739  84.45590  90.96710  84.44634  89.97384  90.63960  90.81412
      16  87.53819  89.89696         12.68303   7.726600  90.63960  90.81412  84.44634  89.97384  84.43678  88.97980  90.63003  89.82009
      16  87.52862  88.90255         12.69279   7.726600  90.63003  89.82009  84.43678  88.97980  84.42721  87.98500  90.62046  88.82529
      16  87.51904  87.90737         12.70256   7.726600  90.62046  88.82529  84.42721  87.98500  84.41763  86.98944  90.61088  87.82973
      16  87.50946  86.91142         12.71233   7.726600  90.61088  87.82973  84.41763  86.98944  84.40804  85.99311  90.60129  86.83340
      16  87.49987  85.91471         12.72211   7.726600  90.60129  86.83340  84.40804  85.99311  84.39844  84.99601  90.59170  85.83630
      16  87.49027  84.91723         12.73190   7.726600  90.59170  85.83630  84.39844  84.99601  84.38884  83.99815  90.58210  84.83844
      16  87.48067  83.91898         12.74170   7.726600  90.58210  84.83844  84.38884  83.99815  84.37923  82.99952  90.57249  83.83981
      16  87.47105  82.91996         12.75151   7.726600  90.57249  83.83981  84.37923  82.99952  84.36962  82.00012  90.56287  82.84041
      16  87.46143  81.92018         12.76132   7.726600  90.56287  82.84041  84.36962  82.00012  84.35999  80.99995  90.55325  81.84024
      16  87.45181  80.91963         12.77114   7.726600  90.55325  81.84024  84.35999  80.99995  84.35036  79.99901  90.54362  80.83930
      16  87.44217  79.91830         12.78097   7.726600  90.54362  80.83930  84.35036  79.99901  84.34072  78.99730  90.53398  79.83759
      16  87.43253  78.91621         12.79080   7.726600  90.53398  79.83759  84.34072  78.99730  84.33108  77.99482  90.52433  78.83511
      16  87.42288  77.91334         12.80064   7.726600  90.52433  78.83511  84.33108  77.99482  84.32142  76.99157  90.51468  77.83186
      16  87.41322  76.90970         12.81049   7.726600  90.51468  77.83186  84.32142  76.99157  84.31176  75.98755  90.50502  76.82784
      16  87.40356  75.90529         12.82035   7.726600  90.50502  76.82784  84.31176  75.98755  84.30209  74.98275  90.49535  75.82304
      16  87.39388  74.90011         12.83022   7.726600  90.49535  75.82304  84.30209  74.98275  84.29242  73.97718  90.48567  74.81747
      16  87.38420  73.89416         12.84009   7.726600  90.48567  74.81747  84.29242  73.97718  84.28273  72.97084  90.47599  73.81113
      16  87.37452  72.88743         12.84997   7.726600  90.47599  73.81113  84.28273  72.97084  84.27304  71.96372  90.46630  72.80401
      16  87.36482  71.87992         12.85986   7.726600  90.46630  72.80401  84.27304  71.96372  84.26335  70.95583  90.45660  71.79612
      16  87.35512  70.87164         12.86976   7.726600  90.45660  71.79612  84.26335  70.95583  84.25364  69.94716  90.44690  70.78745
      16  87.34541  69.86258         12.87966   7.726600  90.44690  70.78745  84.25364  69.94716  84.24393  68.93772  90.43718  69.77801
      16  87.33569  68.85275         12.88957   7.726600  90.43718  69.77801  84.24393  68.93772  84.23421  67.92750  90.42746  68.76779
      16  87.32597  67.84214         12.89949   7.726600  90.42746  68.76779  84.23421  67.92750  84.22448  66.91650  90.41773  67.75679
      16  87.31624  66.83075         12.90942   7.726600  90.41773  67.75679  84.22448  66.91650  84.21474  65.90472  90.40800  66.74501
      16  87.30650  65.81859         12.91935   7.726600  90.40800  66.74501  84.21474  65.90472  84.20500  64.89217  90.39826  65.73246
      16  87.29675  64.80564         12.92929   7.726600  90.39826  65.73246  84.20500  64.89217  84.19525  63.87883  90.38850  64.71912
      16  87.28700  63.79192         12.93924   7.726600  90.38850  64.71912  84.19525  63.87883  84.18549  62.86472  90.37875  63.70501
      16  87.27724  62.77742         12.94920   7.726600  90.37875  63.70501  84.18549  62.86472  84.17573  61.84982  90.36898  62.69011
      16  87.26747  61.76213         12.95916   7.726600  90.36898  62.69011  84.17573  61.84982  84.16595  60.83415  90.35921  61.67444
      16  87.25769  60.74607         12.96914   7.726600  90.35921  61.67444  84.16595  60.83415  84.15617  59.81769  90.34943  60.65798
      16  87.24791  59.72922         12.97912   7.726600  90.34943  60.65798  84.15617  59.81769  84.14638  58.80045  90.33964  59.64074
      16  87.23811  58.71159         12.98910   7.726600  90.33964  59.64074  84.14638  58.80045  84.13659  57.78243  90.32984  58.62272
      16  87.22831  57.69317         12.99910   7.726600  90.32984  58.62272  84.13659  57.78243  84.12678  56.76363  90.32004  57.60392
      16  87.21851  56.67398         13.00910   7.726600  90.32004  57.60392  84.12678  56.76363  84.11697  55.74404  90.31023  56.58433
      16  87.20869  55.65399         13.01911   7.726600  90.31023  56.58433  84.11697  55.74404  84.10716  54.72366  90.30041  55.56395
      16  87.19887  54.63323         13.02913   7.726600  90.30041  55.56395  84.10716  54.72366  84.09733  53.70250  90.29059  54.54279
      16  87.18904  53.61168         13.03916   7.726600  90.29059  54.54279  84.09733  53.70250  84.08750  52.68056  90.28075  53.52085
      16  87.17920  52.58934         13.04919   7.726600  90.28075  53.52085  84.08750  52.68056  84.07766  51.65783  90.27091  52.49812
      16  87.16936  51.56621         13.05923   7.726600  90.27091  52.49812  84.07766  51.65783  84.06781  50.63431  90.26106  51.47460
      16  87.15951  50.54230         13.06928   7.726600  90.26106  51.47460  84.06781  50.63431  84.05795  49.61000  90.25121  50.45029
      16  87.14965  49.51760         13.07934   7.726600  90.25121  50.45029  84.05795  49.61000  84.04809  48.58491  90.24134  49.42520
      16  87.13978  48.49211         13.08941   7.726600  90.24134  49.42520  84.04809  48.58491  84.03822  47.55903  90.23147  48.39932
      16  87.12990  47.46584         13.09948   7.726600  90.23147  48.39932  84.03822  47.55903  84.02834  46.53235  90.22159  47.37264
      16  87.12002  46.43877         13.10956   7.726600  90.22159  47.37264  84.02834  46.53235  84.01845  45.50489  90.21171  46.34518
      16  87.11013  45.41091         13.11965   7.726600  90.21171  46.34518  84.01845  45.50489  84.00856  44.47664  90.20181  45.31693
      16  87.10023  44.38226         13.12974   7.726600  90.20181  45.31693  84.00856  44.47664  83.99865  43.44759  90.19191  44.28788
      16  87.09033  43.35282         13.13985   7.726600  90.19191  44.28788  83.99865  43.44759  83.98874  42.41776  90.18200  43.25805
      16  87.08041  42.32259         13.14996   7.726600  90.18200  43.25805  83.98874  42.41776  83.97883  41.38713  90.17208  42.22742
      16  87.07049  41.29156         13.16008   7.726600  90.17208  42.22742  83.97883  41.38713  83.96890  40.35571  90.16216  41.19600
      16  87.06056  40.25974         13.17020   7.726600  90.16216  41.19600  83.96890  40.35571  83.95897  39.32349  90.15223  40.16378
      16  87.05063  39.22713         13.18034   7.726600  90.15223  40.16378  83.95897  39.32349  83.94903  38.29048  90.14229  39.13077
      16  87.04069  38.19372         13.19048   7.726600  90.14229  39.13077  83.94903  38.29048  83.93908  37.25668  90.13234  38.09697
      16  87.03073  37.15952         13.20063   7.726600  90.13234  38.09697  83.93908  37.25668  83.92913  36.22208  90.12238  37.06237
      16  87.02077  36.12452         13.21079   7.726600  90.12238  37.06237  83.92913  36.22208  83.91917  35.18668  90.11242  36.02697
      16  87.01081  35.08873         13.22096   7.726600  90.11242  36.02697  83.91917  35.18668  83.90919  34.15049  90.10245  34.99078
      16  87.00083  34.05214         13.23113   7.726600  90.10245  34.99078  83.90919  34.15049  83.89922  33.11350  90.09247  33.95379
      16  86.99085  33.01475         13.24131   7.726600  90.09247  33.95379  83.89922  33.11350  83.88923  32.07571  90.08249  32.91600
      16  86.98086  31.97656         13.25150   7.726600  90.08249  32.91600  83.88923  32.07571  83.87924  31.03712  90.07249  31.87741
      16  86.97086  30.93757         13.26170   7.726600  90.07249  31.87741  83.87924  31.03712  83.86924  29.99773  90.06249  30.83802
      16  86.96086  29.89779         13.27190   7.726600  90.06249  30.83802  83.86924  29.99773  83.85923  28.95755  90.05248  29.79784
      16  86.95085  28.85720         13.28212   7.726600  90.05248  29.79784  83.85923  28.95755  83.84921  27.91656  90.04247  28.75685
      16  86.94083  27.81581         13.29234   7.726600  90.04247  28.75685  83.84921  27.91656  83.83919  26.87477  90.03244  27.71506
      16  86.93080  26.77362         13.30257   7.726600  90.03244  27.71506  83.83919  26.87477  83.82915  25.83218  90.02241  26.67247
      16  86.92076  25.73063         13.31280   7.726600  90.02241  26.67247  83.82915  25.83218  83.81911  24.78879  90.01237  25.62908
      16  86.91072  24.68684         13.32305   7.726600  90.01237  25.62908  83.81911  24.78879  83.80907  23.74460  90.00232  24.58489
      16  86.90067  23.64224         13.33330   7.726600  90.00232  24.58489  83.80907  23.74460  83.79901  22.69960  89.99227  23.53989
      16  86.89061  22.59684         13.34356   7.726600  89.99227  23.53989  83.79901  22.69960  83.78895  21.65380  89.98220  22.49409
      16  86.88054  21.55064         13.35383   7.726600  89.98220  22.49409  83.78895  21.65380  83.77888  20.60719  89.97213  21.44748
      16  86.87047  20.50363         13.36411   7.726600  89.97213  21.44748  83.77888  20.60719  83.76880  19.55978  89.96205  20.40007
      16  86.86038  19.45581         13.37439   7.726600  89.96205  20.40007  83.76880  19.55978  83.75871  18.51156  89.95197  19.35185
      16  86.85029  18.40719         13.38468   7.726600  89.95197  19.35185  83.75871  18.51156  83.74862  17.46253  89.94187  18.30282
      16  86.84020  17.35776         13.39498   7.726600  89.94187  18.30282  83.74862  17.46253  83.73852  16.41270  89.93177  17.25299
      16  86.83009  16.30752         13.40529   7.726600  89.93177  17.25299  83.73852  16.41270  83.72841  15.36206  89.92166  16.20235
      16  86.81998  15.25648         13.41560   7.726600  89.92166  16.20235  83.72841  15.36206  83.71829  14.31061  89.91155  15.15090
      16  86.80986  14.20463         13.42593   7.726600  89.91155  15.15090  83.71829  14.31061  83.70817  13.25835  89.90142  14.09864
      16  86.79973  13.15196         13.43626   7.726600  89.90142  14.09864  83.70817  13.25835  83.69803  12.20529  89.89129  13.04557
      16  86.78959  12.09849         13.44660   7.726600  89.89129  13.04557  83.69803  12.20529  83.68789  11.15141  89.88115  11.99170
      16  86.77945  11.04421         13.45695   7.726600  89.88115  11.99170  83.68789  11.15141  83.67774  10.09672  89.87100  10.93701
      16  86.76929   9.98911         13.46730   7.726600  89.87100  10.93701  83.67774  10.09672  83.66759   9.04122  89.86084   9.88151
      16  86.75913   8.93321         13.47767   7.726600  89.86084   9.88151  83.66759   9.04122  83.65742   7.98490  89.85068   8.82519
      16  86.74896   7.87649         13.48804   7.726600  89.85068   8.82519  83.65742   7.98490  83.64725   6.92778  89.84051   7.76807
      16  86.73879   6.81895         13.49842   7.726600  89.84051   7.76807  83.64725   6.92778  83.63707   5.86984  89.83033   6.71013
      16  86.72860   5.76061         13.50880   7.726600  89.83033   6.71013  83.63707   5.86984  83.62688   4.81109  89.82014   5.65138
      16  86.71841   4.70145         13.51920   7.726600  89.82014   5.65138  83.62688   4.81109  83.61669   3.75152  89.80994   4.59181
      16  86.70821   3.64147         13.52960   7.726600  89.80994   4.59181  83.61669   3.75152  83.60648   2.69113  89.79974   3.53142
      16  86.69801   2.58068         13.54001   7.726600  89.79974   3.53142  83.60648   2.69113  83.59627   1.62993  89.78953   2.47022
      16  86.68779   1.51907         13.55043   7.726600  89.78953   2.47022  83.59627   1.62993  83.58605   0.56792  89.77931   1.40821
      16  86.67757   0.45665         13.56086   7.726600  89.77931   1.40821  83.58605   0.56792  83.57583  -0.49491  89.76908   0.34537
      15  76.26866 127.97767         13.10956   8.242480  79.36303 128.90227  73.17759 128.00625  73.17428 127.05306  79.35972 127.94908
      15  76.26535 127.02411         13.11965   8.242480  79.35972 127.94908  73.17428 127.05306  73.17098 126.09914  79.35641 126.99516
      15  76.26204 126.06982         13.12974   8.242480  79.35641 126.99516  73.17098 126.09914  73.16767 125.14449  79.35310 126.04051
      15  76.25873 125.11480         13.13985   8.242480  79.35310 126.04051  73.16767 125.14449  73.16435 124.18910  79.34979 125.08512
      15  76.25541 124.15905         13.14996   8.242480  79.34979 125.08512  73.16435 124.18910  73.16104 123.23297  79.34648 124.12899
      15  76.25210 123.20255         13.16008   8.242480  79.34648 124.12899  73.16104 123.23297  73.15772 122.27611  79.34316 123.17213
      15  76.24878 122.24532         13.17020   8.242480  79.34316 123.17213  73.15772 122.27611  73.15440 121.31852  79.33984 122.21453
      15  76.24546 121.28736         13.18034   8.242480  79.33984 122.21453  73.15440 121.31852  73.15107 120.36018  79.33651 121.25620
      15  76.24213 120.32866         13.19048   8.242480  79.33651 121.25620  73.15107 120.36018  73.14775 119.40111  79.33319 120.29713
      15  76.23880 119.36922         13.20063   8.242480  79.33319 120.29713  73.14775 119.40111  73.14442 118.44130  79.32986 119.33732
      15  76.23547 118.40904         13.21079   8.242480  79.32986 119.33732  73.14442 118.44130  73.14109 117.48076  79.32653 118.37677
      15  76.23214 117.44812         13.22096   8.242480  79.32653 118.37677  73.14109 117.48076  73.13776 116.51947  79.32319 117.41549
      15  76.22881 116.48646         13.23113   8.242480  79.32319 117.41549  73.13776 116.51947  73.13442 115.55744  79.31986 116.45346
      15  76.22547 115.52407         13.24131   8.242480  79.31986 116.45346  73.13442 115.55744  73.13108 114.59467  79.31652 115.49069
      15  76.22213 114.56093         13.25150   8.242480  79.31652 115.49069  73.13108 114.59467  73.12774 113.63117  79.31318 114.52718
      15  76.21879 113.59705         13.26170   8.242480  79.31318 114.52718  73.12774 113.63117  73.12440 112.66692  79.30983 113.56293
      15  76.21544 112.63243         13.27190   8.242480  79.30983 113.56293  73.12440 112.66692  73.12105 111.70193  79.30649 112.59794
      15  76.21209 111.66707         13.28212   8.242480  79.30649 112.59794  73.12105 111.70193  73.11770 110.73619  79.30314 111.63221
      15  76.20874 110.70096         13.29234   8.242480  79.30314 111.63221  73.11770 110.73619  73.11435 109.76971  79.29979 110.66573
      15  76.20539 109.73411         13.30257   8.242480  79.29979 110.66573  73.11435 109.76971  73.11100 108.80249  79.29643 109.69851
      15  76.20204 108.76652         13.31280   8.242480  79.29643 109.69851  73.11100 108.80249  73.10764 107.83453  79.29308 108.73055
      15  76.19868 107.79818         13.32305   8.242480  79.29308 108.73055  73.10764 107.83453  73.10428 106.86582  79.28972 107.76184
      15  76.19532 106.82910         13.33330   8.242480  79.28972 107.76184  73.10428 106.86582  73.10092 105.89636  79.28636 106.79238
      15  76.19195 105.85927         13.34356   8.242480  79.28636 106.79238  73.10092 105.89636  73.09755 104.92616  79.28299 105.82218
      15  76.18859 104.88870         13.35383   8.242480  79.28299 105.82218  73.09755 104.92616  73.09419 103.95521  79.27962 104.85123
      15  76.18522 103.91737         13.36411   8.242480  79.27962 104.85123  73.09419 103.95521  73.09082 102.98352  79.27626 103.87954
      15  76.18185 102.94531         13.37439   8.242480  79.27626 103.87954  73.09082 102.98352  73.08744 102.01108  79.27288 102.90709
      15  76.17848 101.97249         13.38468   8.242480  79.27288 102.90709  73.08744 102.01108  73.08407 101.03788  79.26951 101.93390
      15  76.17510 100.99892         13.39498   8.242480  79.26951 101.93390  73.08407 101.03788  73.08069 100.06394  79.26613 100.95996
      15  76.17172 100.02461         13.40529   8.242480  79.26613 100.95996  73.08069 100.06394  73.07731  99.08925  79.26275  99.98527
      15  76.16834  99.04954         13.41560   8.242480  79.26275  99.98527  73.07731  99.08925  73.07393  98.11381  79.25937  99.00983
      15  76.16496  98.07373         13.42593   8.242480  79.25937  99.00983  73.07393  98.11381  73.07054  97.13762  79.25598  98.03364
      15  76.16157  97.09716         13.43626   8.242480  79.25598  98.03364  73.07054  97.13762  73.06716  96.16068  79.25259  97.05670
      15  76.15818  96.11984         13.44660   8.242480  79.25259  97.05670  73.06716  96.16068  73.06377  95.18299  79.24920  96.07901
      15  76.15479  95.14178         13.45695   8.242480  79.24920  96.07901  73.06377  95.18299  73.06037  94.20454  79.24581  95.10056
      15  76.15139  94.16295         13.46730   8.242480  79.24581  95.10056  73.06037  94.20454  73.05698  93.22535  79.24242  94.12136
      15  76.14800  93.18338         13.47767   8.242480  79.24242  94.12136  73.05698  93.22535  73.05358  92.24539  79.23902  93.14141
      15  76.14460  92.20305         13.48804   8.242480  79.23902  93.14141  73.05358  92.24539  73.05018  91.26469  79.23562  92.16070
      15  76.14120  91.22196         13.49842   8.242480  79.23562  92.16070  73.05018  91.26469  73.04677  90.28323  79.23221  91.17924
      15  76.13779  90.24013         13.50880   8.242480  79.23221  91.17924  73.04677  90.28323  73.04337  89.30101  79.22881  90.19703
      15  76.13438  89.25753         13.51920   8.242480  79.22881  90.19703  73.04337  89.30101  73.03996  88.31804  79.22540  89.21405
      15  76.13097  88.27418         13.52960   8.242480  79.22540  89.21405  73.03996  88.31804  73.03655  87.33431  79.22199  88.23033
      15  76.12756  87.29007         13.54001   8.242480  79.22199  88.23033  73.03655  87.33431  73.03313  86.34982  79.21857  87.24584
      15  76.12415  86.30521         13.55043   8.242480  79.21857  87.24584  73.03313  86.34982  73.02972  85.36458  79.21516  86.26060
      15  76.12073  85.31959         13.56086   8.242480  79.21516  86.26060  73.02972  85.36458  73.02630  84.37858  79.21174  85.27460
      15  76.11731  84.33321         13.57130   8.242480  79.21174  85.27460  73.02630  84.37858  73.02288  83.39182  79.20832  84.28784
      15  76.11388  83.34607         13.58174   8.242480  79.20832  84.28784  73.02288  83.39182  73.01945  82.40430  79.20489  83.30032
      15  76.11046  82.35817         13.59219   8.242480  79.20489  83.30032  73.01945  82.40430  73.01602  81.41602  79.20146  82.31204
      15  76.10703  81.36951         13.60265   8.242480  79.20146  82.31204  73.01602  81.41602  73.01260  80.42698  79.19803  81.32300
      15  76.10360  80.38009         13.61312   8.242480  79.19803  81.32300  73.01260  80.42698  73.00916  79.43718  79.19460  80.33320
      15  76.10016  79.38991         13.62359   8.242480  79.19460  80.33320  73.00916  79.43718  73.00573  78.44662  79.19117  79.34263
      15  76.09673  78.39896         13.63408   8.242480  79.19117  79.34263  73.00573  78.44662  73.00229  77.45529  79.18773  78.35131
      15  76.09329  77.40726         13.64457   8.242480  79.18773  78.35131  73.00229  77.45529  72.99885  76.46320  79.18429  77.35922
      15  76.08985  76.41479         13.65507   8.242480  79.18429  77.35922  72.99885  76.46320  72.99541  75.47035  79.18085  76.36637
      15  76.08640  75.42155         13.66558   8.242480  79.18085  76.36637  72.99541  75.47035  72.99196  74.47674  79.17740  75.37276
      15  76.08296  74.42756         13.67609   8.242480  79.17740  75.37276  72.99196  74.47674  72.98851  73.48236  79.17395  74.37838
      15  76.07951  73.43280         13.68662   8.242480  79.17395  74.37838  72.98851  73.48236  72.98506  72.48721  79.17050  73.38323
      15  76.07605  72.43727         13.69715   8.242480  79.17050  73.38323  72.98506  72.48721  72.98161  71.49130  79.16705  72.38732
      15  76.07260  71.44097         13.70769   8.242480  79.16705  72.38732  72.98161  71.49130  72.97815  70.49463  79.16359  71.39064
      15  76.06914  70.44391         13.71824   8.242480  79.16359  71.39064  72.97815  70.49463  72.97469  69.49718  79.16013  70.39320
      15  76.06568  69.44608         13.72880   8.242480  79.16013  70.39320  72.97469  69.49718  72.97123  68.49897  79.15667  69.39499
      15  76.06222  68.44749         13.73936   8.242480  79.15667  69.39499  72.97123  68.49897  72.96777  67.49999  79.15321  68.39601
      15  76.05875  67.44813         13.74993   8.242480  79.15321  68.39601  72.96777  67.49999  72.96430  66.50024  79.14974  67.39626
      15  76.05528  66.44799         13.76051   8.242480  79.14974  67.39626  72.96430  66.50024  72.96083  65.49972  79.14627  66.39574
      15  76.05181  65.44709         13.77110   8.242480  79.14627  66.39574  72.96083  65.49972  72.95736  64.49844  79.14280  65.39445
      15  76.04834  64.44542         13.78170   8.242480  79.14280  65.39445  72.95736  64.49844  72.95388  63.49638  79.13932  64.39240
      15  76.04486  63.44297         13.79231   8.242480  79.13932  64.39240  72.95388  63.49638  72.95041  62.49355  79.13584  63.38957
      15  76.04139  62.43976         13.80292   8.242480  79.13584  63.38957  72.95041  62.49355  72.94693  61.48995  79.13236  62.38596
      15  76.03790  61.43577         13.81354   8.242480  79.13236  62.38596  72.94693  61.48995  72.94344  60.48557  79.12888  61.38159
      15  76.03442  60.43101         13.82417   8.242480  79.12888  61.38159  72.94344  60.48557  72.93996  59.48043  79.12540  60.37645
      15  76.03093  59.42548         13.83481   8.242480  79.12540  60.37645  72.93996  59.48043  72.93647  58.47451  79.12191  59.37053
      15  76.02744  58.41917         13.84546   8.242480  79.12191  59.37053  72.93647  58.47451  72.93298  57.46781  79.11842  58.36383
      15  76.02395  57.41209         13.85611   8.242480  79.11842  58.36383  72.93298  57.46781  72.92948  56.46035  79.11492  57.35636
      15  76.02046  56.40423         13.86677   8.242480  79.11492  57.35636  72.92948  56.46035  72.92599  55.45210  79.11143  56.34812
      15  76.01696  55.39560         13.87744   8.242480  79.11143  56.34812  72.92599  55.45210  72.92249  54.44308  79.10793  55.33910
      15  76.01346  54.38619         13.88812   8.242480  79.10793  55.33910  72.92249  54.44308  72.91899  53.43329  79.10443  54.32930
      15  76.00995  53.37601         13.89881   8.242480  79.10443  54.32930  72.91899  53.43329  72.91548  52.42271  79.10092  53.31873
      15  76.00645  52.36505         13.90951   8.242480  79.10092  53.31873  72.91548  52.42271  72.91198  51.41136  79.09741  52.30738
      15  76.00294  51.35331         13.92021   8.242480  79.09741  52.30738  72.91198  51.41136  72.90847  50.39923  79.09390  51.29525
      15  75.99943  50.34079         13.93092   8.242480  79.09390  51.29525  72.90847  50.39923  72.90495  49.38632  79.09039  50.28234
      15  75.99591  49.32749         13.94164   8.242480  79.09039  50.28234  72.90495  49.38632  72.90144  48.37264  79.08688  49.26865
      15  75.99240  48.31341         13.95237   8.242480  79.08688  49.26865  72.90144  48.37264  72.89792  47.35817  79.08336  48.25419
      15  75.98888  47.29855         13.96311   8.242480  79.08336  48.25419  72.89792  47.35817  72.89440  46.34292  79.07984  47.23894
      15  75.98536  46.28292         13.97385   8.242480  79.07984  47.23894  72.89440  46.34292  72.89088  45.32689  79.07631  46.22291
      15  75.98183  45.26650         13.98460   8.242480  79.07631  46.22291  72.89088  45.32689  72.88735  44.31008  79.07279  45.20610
      15  75.97830  44.24929         13.99537   8.242480  79.07279  45.20610  72.88735  44.31008  72.88382  43.29249  79.06926  44.18850
      15  75.97477  43.23131         14.00614   8.242480  79.06926  44.18850  72.88382  43.29249  72.88029  42.27411  79.06573  43.17013
      15  75.97124  42.21254         14.01691   8.242480  79.06573  43.17013  72.88029  42.27411  72.87676  41.25495  79.06219  42.15097
      15  75.96771  41.19299         14.02770   8.242480  79.06219  42.15097  72.87676  41.25495  72.87322  40.23501  79.05866  41.13102
      15  75.96417  40.17265         14.03849   8.242480  79.05866  41.13102  72.87322  40.23501  72.86968  39.21428  79.05512  40.11029
      15  75.96063  39.15153         14.04930   8.242480  79.05512  40.11029  72.86968  39.21428  72.86614  38.19276  79.05158  39.08878
      15  75.95708  38.12962         14.06011   8.242480  79.05158  39.08878  72.86614  38.19276  72.86259  37.17046  79.04803  38.06648
      15  75.95354  37.10692         14.07093   8.242480  79.04803  38.06648  72.86259  37.17046  72.85904  36.14737  79.04448  37.04339
      15  75.94999  36.08344         14.08176   8.242480  79.04448  37.04339  72.85904  36.14737  72.85549  35.12350  79.04093  36.01951
      15  75.94644  35.05917         14.09259   8.242480  79.04093  36.01951  72.85549  35.12350  72.85194  34.09883  79.03738  34.99485
      15  75.94288  34.03412         14.10344   8.242480  79.03738  34.99485  72.85194  34.09883  72.84838  33.07338  79.03382  33.96940
      15  75.93932  33.00827         14.11429   8.242480  79.03382  33.96940  72.84838  33.07338  72.84482  32.04714  79.03026  32.94316
      15  75.93576  31.98163         14.12515   8.242480  79.03026  32.94316  72.84482  32.04714  72.84126  31.02011  79.02670  31.91613
      15  75.93220  30.95421         14.13602   8.242480  79.02670  31.91613  72.84126  31.02011  72.83770  29.99229  79.02314  30.88831
      15  75.92863  29.92599         14.14690   8.242480  79.02314  30.88831  72.83770  29.99229  72.83413  28.96368  79.01957  29.85969
      15  75.92507  28.89698         14.15779   8.242480  79.01957  29.85969  72.83413  28.96368  72.83056  27.93427  79.01600  28.83029
      15  75.92150  27.86719         14.16868   8.242480  79.01600  28.83029  72.83056  27.93427  72.82699  26.90408  79.01243  27.80010
      15  75.91792  26.83659         14.17958   8.242480  79.01243  27.80010  72.82699  26.90408  72.82341  25.87309  79.00885  26.76911
      15  75.91434  25.80521         14.19050   8.242480  79.00885  26.76911  72.82341  25.87309  72.81984  24.84131  79.00528  25.73733
      15  75.91077  24.77303         14.20142   8.242480  79.00528  25.73733  72.81984  24.84131  72.81626  23.80873  79.00169  24.70475
      15  75.90718  23.74006         14.21234   8.242480  79.00169  24.70475  72.81626  23.80873  72.81267  22.77536  78.99811  23.67138
      15  75.90360  22.70629         14.22328   8.242480  78.99811  23.67138  72.81267  22.77536  72.80909  21.74120  78.99452  22.63722
      15  75.90001  21.67173         14.23423   8.242480  78.99452  22.63722  72.80909  21.74120  72.80550  20.70624  78.99094  21.60225
      15  75.89642  20.63637         14.24518   8.242480  78.99094  21.60225  72.80550  20.70624  72.80191  19.67048  78.98734  20.56650
      15  75.89283  19.60021         14.25614   8.242480  78.98734  20.56650  72.80191  19.67048  72.79831  18.63393  78.98375  19.52994
      15  75.88923  18.56326         14.26711   8.242480  78.98375  19.52994  72.79831  18.63393  72.79471  17.59657  78.98015  18.49259
      15  75.88563  17.52551         14.27809   8.242480  78.98015  18.49259  72.79471  17.59657  72.79111  16.55842  78.97655  17.45444
      15  75.88203  16.48696         14.28908   8.242480  78.97655  17.45444  72.79111  16.55842  72.78751  15.51947  78.97295  16.41549
      15  75.87843  15.44761         14.30007   8.242480  78.97295  16.41549  72.78751  15.51947  72.78390  14.47972  78.96934  15.37574
      15  75.87482  14.40746         14.31108   8.242480  78.96934  15.37574  72.78390  14.47972  72.78030  13.43917  78.96574  14.33519
      15  75.87121  13.36651         14.32209   8.242480  78.96574  14.33519  72.78030  13.43917  72.77669  12.39783  78.96212  13.29384
      15  75.86760  12.32476         14.33311   8.242480  78.96212  13.29384  72.77669  12.39783  72.77307  11.35567  78.95851  12.25169
      15  75.86398  11.28221         14.34414   8.242480  78.95851  12.25169  72.77307  11.35567  72.76945  10.31272  78.95489  11.20874
      15  75.86036  10.23885         14.35518   8.242480  78.95489  11.20874  72.76945  10.31272  72.76583   9.26897  78.95127  10.16498
      15  75.85674   9.19469         14.36623   8.242480  78.95127  10.16498  72.76583   9.26897  72.76221   8.22441  78.94765   9.12042
      15  75.85312   8.14973         14.37728   8.242480  78.94765   9.12042  72.76221   8.22441  72.75859   7.17904  78.94403   8.07506
      15  75.84949   7.10397         14.38835   8.242480  78.94403   8.07506  72.75859   7.17904  72.75496   6.13288  78.94040   7.02889
      15  75.84586   6.05740         14.39942   8.242480  78.94040   7.02889  72.75496   6.13288  72.75133   5.08590  78.93677   5.98192
      15  75.84223   5.01002         14.41050   8.242480  78.93677   5.98192  72.75133   5.08590  72.74770   4.03813  78.93313   4.93414
      15  75.83860   3.96184         14.42159   8.242480  78.93313   4.93414  72.74770   4.03813  72.74406   2.98954  78.92950   3.88556
      15  75.83496   2.91286         14.43269   8.242480  78.92950   3.88556  72.74406   2.98954  72.74042   1.94015  78.92586   2.83617
      15  75.83132   1.86306         14.44379   8.242480  78.92586   2.83617  72.74042   1.94015  72.73678   0.88995  78.92222   1.78597
      15  75.82768   0.81246         14.45491   8.242480  78.92222   1.78597  72.73678   0.88995  72.73313  -0.16105  78.91857   0.73496
      14  63.97898 126.93937         14.08176   8.840170  67.07729 127.99393  60.90153 127.03344  60.88067 125.88480  67.05643 126.84529
      14  63.95811 125.79029         14.09259   8.840170  67.05643 126.84529  60.88067 125.88480  60.85980 124.73528  67.03555 125.69577
      14  63.93723 124.64032         14.10344   8.840170  67.03555 125.69577  60.85980 124.73528  60.83891 123.58487  67.01466 124.54536
      14  63.91633 123.48947         14.11429   8.840170  67.01466 124.54536  60.83891 123.58487  60.81800 122.43358  66.99375 123.39407
      14  63.89542 122.33774         14.12515   8.840170  66.99375 123.39407  60.81800 122.43358  60.79708 121.28140  66.97283 122.24189
      14  63.87448 121.18511         14.13602   8.840170  66.97283 122.24189  60.79708 121.28140  60.77614 120.12833  66.95189 121.08883
      14  63.85354 120.03160         14.14690   8.840170  66.95189 121.08883  60.77614 120.12833  60.75518 118.97438  66.93094 119.93487
      14  63.83257 118.87721         14.15779   8.840170  66.93094 119.93487  60.75518 118.97438  60.73421 117.81954  66.90996 118.78003
      14  63.81159 117.72192         14.16868   8.840170  66.90996 118.78003  60.73421 117.81954  60.71322 116.66381  66.88898 117.62430
      14  63.79060 116.56575         14.17958   8.840170  66.88898 117.62430  60.71322 116.66381  60.69222 115.50719  66.86797 116.46769
      14  63.76958 115.40869         14.19050   8.840170  66.86797 116.46769  60.69222 115.50719  60.67120 114.34968  66.84695 115.31018
      14  63.74855 114.25073         14.20142   8.840170  66.84695 115.31018  60.67120 114.34968  60.65016 113.19129  66.82591 114.15178
      14  63.72751 113.09189         14.21234   8.840170  66.82591 114.15178  60.65016 113.19129  60.62911 112.03199  66.80486 112.99249
      14  63.70645 111.93215         14.22328   8.840170  66.80486 112.99249  60.62911 112.03199  60.60804 110.87181  66.78379 111.83230
      14  63.68537 110.77152         14.23423   8.840170  66.78379 111.83230  60.60804 110.87181  60.58695 109.71074  66.76271 110.67123
      14  63.66428 109.61000         14.24518   8.840170  66.76271 110.67123  60.58695 109.71074  60.56585 108.54877  66.74161 109.50926
      14  63.64317 108.44758         14.25614   8.840170  66.74161 109.50926  60.56585 108.54877  60.54473 107.38590  66.72049 108.34639
      14  63.62204 107.28427         14.26711   8.840170  66.72049 108.34639  60.54473 107.38590  60.52360 106.22215  66.69935 107.18264
      14  63.60090 106.12006         14.27809   8.840170  66.69935 107.18264  60.52360 106.22215  60.50245 105.05749  66.67820 106.01798
      14  63.57974 104.95496         14.28908   8.840170  66.67820 106.01798  60.50245 105.05749  60.48128 103.89194  66.65704 104.85243
      14  63.55857 103.78896         14.30007   8.840170  66.65704 104.85243  60.48128 103.89194  60.46010 102.72549  66.63586 103.68599
      14  63.53738 102.62207         14.31108   8.840170  66.63586 103.68599  60.46010 102.72549  60.43890 101.55815  66.61466 102.51864
      14  63.51617 101.45427         14.32209   8.840170  66.61466 102.51864  60.43890 101.55815  60.41769 100.38991  66.59344 101.35040
      14  63.49495 100.28558         14.33311   8.840170  66.59344 101.35040  60.41769 100.38991  60.39645  99.22077  66.57221 100.18126
      14  63.47371  99.11599         14.34414   8.840170  66.57221 100.18126  60.39645  99.22077  60.37521  98.05072  66.55096  99.01121
      14  63.45245  97.94550         14.35518   8.840170  66.55096  99.01121  60.37521  98.05072  60.35394  96.87978  66.52970  97.84027
      14  63.43118  96.77411         14.36623   8.840170  66.52970  97.84027  60.35394  96.87978  60.33266  95.70794  66.50842  96.66843
      14  63.40989  95.60181         14.37728   8.840170  66.50842  96.66843  60.33266  95.70794  60.31136  94.53519  66.48712  95.49569
      14  63.38858  94.42862         14.38835   8.840170  66.48712  95.49569  60.31136  94.53519  60.29005  93.36155  66.46581  94.32204
      14  63.36726  93.25452         14.39942   8.840170  66.46581  94.32204  60.29005  93.36155  60.26872  92.18700  66.44448  93.14749
      14  63.34592  92.07951         14.41050   8.840170  66.44448  93.14749  60.26872  92.18700  60.24737  91.01154  66.42313  91.97203
      14  63.32457  90.90361         14.42159   8.840170  66.42313  91.97203  60.24737  91.01154  60.22601  89.83518  66.40177  90.79567
      14  63.30320  89.72680         14.43269   8.840170  66.40177  90.79567  60.22601  89.83518  60.20463  88.65792  66.38039  89.61841
      14  63.28181  88.54908         14.44379   8.840170  66.38039  89.61841  60.20463  88.65792  60.18324  87.47975  66.35899  88.44024
      14  63.26041  87.37046         14.45491   8.840170  66.35899  88.44024  60.18324  87.47975  60.16182  86.30067  66.33758  87.26116
      14  63.23899  86.19093         14.46603   8.840170  66.33758  87.26116  60.16182  86.30067  60.14040  85.12069  66.31615  86.08118
      14  63.21755  85.01049         14.47716   8.840170  66.31615  86.08118  60.14040  85.12069  60.11895  83.93980  66.29471  84.90029
      14  63.19610  83.82914         14.48830   8.840170  66.29471  84.90029  60.11895  83.93980  60.09749  82.75800  66.27324  83.71849
      14  63.17463  82.64689         14.49945   8.840170  66.27324  83.71849  60.09749  82.75800  60.07601  81.57529  66.25177  82.53578
      14  63.15314  81.46372         14.51061   8.840170  66.25177  82.53578  60.07601  81.57529  60.05452  80.39167  66.23027  81.35216
      14  63.13164  80.27965         14.52178   8.840170  66.23027  81.35216  60.05452  80.39167  60.03301  79.20713  66.20876  80.16763
      14  63.11012  79.09466         14.53295   8.840170  66.20876  80.16763  60.03301  79.20713  60.01148  78.02169  66.18723  78.98218
      14  63.08858  77.90876         14.54413   8.840170  66.18723  78.98218  60.01148  78.02169  59.98993  76.83534  66.16569  77.79583
      14  63.06703  76.72195         14.55533   8.840170  66.16569  77.79583  59.98993  76.83534  59.96837  75.64807  66.14413  76.60856
      14  63.04546  75.53422         14.56653   8.840170  66.14413  76.60856  59.96837  75.64807  59.94680  74.45989  66.12255  75.42038
      14  63.02388  74.34559         14.57774   8.840170  66.12255  75.42038  59.94680  74.45989  59.92520  73.27079  66.10096  74.23128
      14  63.00227  73.15603         14.58895   8.840170  66.10096  74.23128  59.92520  73.27079  59.90359  72.08078  66.07935  73.04127
      14  62.98065  71.96556         14.60018   8.840170  66.07935  73.04127  59.90359  72.08078  59.88196  70.88986  66.05772  71.85035
      14  62.95902  70.77418         14.61142   8.840170  66.05772  71.85035  59.88196  70.88986  59.86032  69.69801  66.03608  70.65850
      14  62.93737  69.58188         14.62266   8.840170  66.03608  70.65850  59.86032  69.69801  59.83866  68.50525  66.01441  69.46574
      14  62.91570  68.38866         14.63391   8.840170  66.01441  69.46574  59.83866  68.50525  59.81698  67.31157  65.99274  68.27207
      14  62.89401  67.19452         14.64517   8.840170  65.99274  68.27207  59.81698  67.31157  59.79529  66.11698  65.97104  67.07747
      14  62.87231  65.99947         14.65644   8.840170  65.97104  67.07747  59.79529  66.11698  59.77358  64.92146  65.94933  65.88195
      14  62.85059  64.80349         14.66772   8.840170  65.94933  65.88195  59.77358  64.92146  59.75185  63.72503  65.92761  64.68552
      14  62.82886  63.60659         14.67901   8.840170  65.92761  64.68552  59.75185  63.72503  59.73011  62.52767  65.90586  63.48816
      14  62.80710  62.40878         14.69031   8.840170  65.90586  63.48816  59.73011  62.52767  59.70835  61.32939  65.88410  62.28988
      14  62.78533  61.21004         14.70161   8.840170  65.88410  62.28988  59.70835  61.32939  59.68657  60.13019  65.86232  61.09068
      14  62.76355  60.01038         14.71292   8.840170  65.86232  61.09068  59.68657  60.13019  59.66477  58.93007  65.84053  59.89056
      14  62.74175  58.80979         14.72425   8.840170  65.84053  59.89056  59.66477  58.93007  59.64296  57.72902  65.81872  58.68951
      14  62.71993  57.60828         14.73558   8.840170  65.81872  58.68951  59.64296  57.72902  59.62113  56.52705  65.79689  57.48754
      14  62.69809  56.40585         14.74692   8.840170  65.79689  57.48754  59.62113  56.52705  59.59929  55.32416  65.77505  56.28465
      14  62.67624  55.20249         14.75826   8.840170  65.77505  56.28465  59.59929  55.32416  59.57743  54.12034  65.75318  55.08083
      14  62.65437  53.99821         14.76962   8.840170  65.75318  55.08083  59.57743  54.12034  59.55555  52.91559  65.73131  53.87608
      14  62.63248  52.79300         14.78099   8.840170  65.73131  53.87608  59.55555  52.91559  59.53366  51.70991  65.70941  52.67041
      14  62.61058  51.58686         14.79236   8.840170  65.70941  52.67041  59.53366  51.70991  59.51174  50.50331  65.68750  51.46380
      14  62.58866  50.37979         14.80374   8.840170  65.68750  51.46380  59.51174  50.50331  59.48981  49.29578  65.66557  50.25627
      14  62.56672  49.17180         14.81514   8.840170  65.66557  50.25627  59.48981  49.29578  59.46787  48.08732  65.64362  49.04781
      14  62.54477  47.96287         14.82654   8.840170  65.64362  49.04781  59.46787  48.08732  59.44591  46.87793  65.62166  47.83842
      14  62.52279  46.75302         14.83795   8.840170  65.62166  47.83842  59.44591  46.87793  59.42393  45.66761  65.59968  46.62810
      14  62.50081  45.54223         14.84936   8.840170  65.59968  46.62810  59.42393  45.66761  59.40193  44.45636  65.57769  45.41685
      14  62.47880  44.33051         14.86079   8.840170  65.57769  45.41685  59.40193  44.45636  59.37992  43.24417  65.55567  44.20466
      14  62.45678  43.11786         14.87223   8.840170  65.55567  44.20466  59.37992  43.24417  59.35789  42.03106  65.53364  42.99155
      14  62.43474  41.90428         14.88367   8.840170  65.53364  42.99155  59.35789  42.03106  59.33584  40.81701  65.51160  41.77750
      14  62.41269  40.68976         14.89512   8.840170  65.51160  41.77750  59.33584  40.81701  59.31378  39.60202  65.48953  40.56251
      14  62.39061  39.47431         14.90659   8.840170  65.48953  40.56251  59.31378  39.60202  59.29169  38.38610  65.46745  39.34659
      14  62.36852  38.25792         14.91806   8.840170  65.46745  39.34659  59.29169  38.38610  59.26960  37.16925  65.44535  38.12974
      14  62.34642  37.04060         14.92954   8.840170  65.44535  38.12974  59.26960  37.16925  59.24748  35.95145  65.42324  36.91194
      14  62.32429  35.82233         14.94103   8.840170  65.42324  36.91194  59.24748  35.95145  59.22535  34.73272  65.40110  35.69322
      14  62.30215  34.60314         14.95252   8.840170  65.40110  35.69322  59.22535  34.73272  59.20320  33.51306  65.37896  34.47355
      14  62.27999  33.38300         14.96403   8.840170  65.37896  34.47355  59.20320  33.51306  59.18103  32.29245  65.35679  33.25294
      14  62.25782  32.16193         14.97555   8.840170  65.35679  33.25294  59.18103  32.29245  59.15885  31.07091  65.33461  32.03140
      14  62.23563  30.93991         14.98707   8.840170  65.33461  32.03140  59.15885  31.07091  59.13665  29.84842  65.31241  30.80891
      14  62.21342  29.71696         14.99860   8.840170  65.31241  30.80891  59.13665  29.84842  59.11443  28.62500  65.29019  29.58549
      14  62.19119  28.49306         15.01014   8.840170  65.29019  29.58549  59.11443  28.62500  59.09220  27.40063  65.26795  28.36112
      14  62.16895  27.26822         15.02170   8.840170  65.26795  28.36112  59.09220  27.40063  59.06995  26.17532  65.24570  27.13581
      14  62.14669  26.04244         15.03325   8.840170  65.24570  27.13581  59.06995  26.17532  59.04768  24.94907  65.22343  25.90956
      14  62.12441  24.81572         15.04482   8.840170  65.22343  25.90956  59.04768  24.94907  59.02539  23.72187  65.20115  24.68237
      14  62.10212  23.58805         15.05640   8.840170  65.20115  24.68237  59.02539  23.72187  59.00309  22.49373  65.17884  23.45423
      14  62.07981  22.35944         15.06799   8.840170  65.17884  23.45423  59.00309  22.49373  58.98077  21.26465  65.15652  22.22514
      14  62.05748  21.12988         15.07958   8.840170  65.15652  22.22514  58.98077  21.26465  58.95843  20.03462  65.13419  20.99511
      14  62.03513  19.89938         15.09119   8.840170  65.13419  20.99511  58.95843  20.03462  58.93608  18.80364  65.11183  19.76413
      14  62.01277  18.66792         15.10280   8.840170  65.11183  19.76413  58.93608  18.80364  58.91370  17.57172  65.08946  18.53221
      14  61.99039  17.43553         15.11442   8.840170  65.08946  18.53221  58.91370  17.57172  58.89132  16.33884  65.06707  17.29933
      14  61.96799  16.20218         15.12605   8.840170  65.06707  17.29933  58.89132  16.33884  58.86891  15.10502  65.04466  16.06551
      14  61.94558  14.96788         15.13769   8.840170  65.04466  16.06551  58.86891  15.10502  58.84649  13.87025  65.02224  14.83074
      14  61.92314  13.73264         15.14934   8.840170  65.02224  14.83074  58.84649  13.87025  58.82404  12.63453  64.99980  13.59502
      14  61.90069  12.49644         15.16100   8.840170  64.99980  13.59502  58.82404  12.63453  58.80159  11.39786  64.97734  12.35835
      14  61.87823  11.25929         15.17267   8.840170  64.97734  12.35835  58.80159  11.39786  58.77911  10.16023  64.95487  11.12073
      14  61.85574  10.02119         15.18434   8.840170  64.95487  11.12073  58.77911  10.16023  58.75662   8.92166  64.93237   9.88215
      14  61.83324   8.78214         15.19603   8.840170  64.93237   9.88215  58.75662   8.92166  58.73411   7.68213  64.90986   8.64262
      14  61.81072   7.54213         15.20772   8.840170  64.90986   8.64262  58.73411   7.68213  58.71158   6.44165  64.88734   7.40214
      14  61.78819   6.30117         15.21942   8.840170  64.88734   7.40214  58.71158   6.44165  58.68904   5.20021  64.86479   6.16070
      14  61.76563   5.05926         15.23113   8.840170  64.86479   6.16070  58.68904   5.20021  58.66648   3.95782  64.84223   4.91831
      14  61.74306   3.81639         15.24286   8.840170  64.84223   4.91831  58.66648   3.95782  58.64390   2.71447  64.81965   3.67496
      14  61.72048   2.57256         15.25459   8.840170  64.81965   3.67496  58.64390   2.71447  58.62130   1.47016  64.79706   2.43065
      14  61.69787   1.32778         15.26632   8.840170  64.79706   2.43065  58.62130   1.47016  58.59869   0.22490  64.77444   1.18539
      14  61.67525   0.08203         15.27807   8.840170  64.77444   1.18539  58.59869   0.22490  58.57605  -1.02132  64.75181  -0.06083
      13  49.35954 127.69488         15.07958   9.519680  52.45338 128.68387  46.28944 127.65020  46.26570 126.70590  52.42963 127.73956
      13  49.33578 126.75022         15.09119   9.519680  52.42963 127.73956  46.26570 126.70590  46.24193 125.76087  52.40586 126.79453
      13  49.31201 125.80482         15.10280   9.519680  52.40586 126.79453  46.24193 125.76087  46.21815 124.81511  52.38208 125.84878
      13  49.28822 124.85870         15.11442   9.519680  52.38208 125.84878  46.21815 124.81511  46.19435 123.86862  52.35828 124.90229
      13  49.26440 123.91185         15.12605   9.519680  52.35828 124.90229  46.19435 123.86862  46.17053 122.92141  52.33446 123.95508
      13  49.24058 122.96427         15.13769   9.519680  52.33446 123.95508  46.17053 122.92141  46.14669 121.97347  52.31062 123.00713
      13  49.21673 122.01596         15.14934   9.519680  52.31062 123.00713  46.14669 121.97347  46.12284 121.02480  52.28677 122.05846
      13  49.19286 121.06693         15.16100   9.519680  52.28677 122.05846  46.12284 121.02480  46.09896 120.07539  52.26289 121.10906
      13  49.16898 120.11716         15.17267   9.519680  52.26289 121.10906  46.09896 120.07539  46.07507 119.12526  52.23900 120.15893
      13  49.14508 119.16666         15.18434   9.519680  52.23900 120.15893  46.07507 119.12526  46.05116 118.17440  52.21509 119.20806
      13  49.12116 118.21543         15.19603   9.519680  52.21509 119.20806  46.05116 118.17440  46.02723 117.22280  52.19116 118.25647
      13  49.09722 117.26347         15.20772   9.519680  52.19116 118.25647  46.02723 117.22280  46.00328 116.27047  52.16721 117.30414
      13  49.07326 116.31077         15.21942   9.519680  52.16721 117.30414  46.00328 116.27047  45.97931 115.31741  52.14324 116.35108
      13  49.04928 115.35735         15.23113   9.519680  52.14324 116.35108  45.97931 115.31741  45.95533 114.36362  52.11926 115.39728
      13  49.02529 114.40319         15.24286   9.519680  52.11926 115.39728  45.95533 114.36362  45.93132 113.40909  52.09525 114.44275
      13  49.00128 113.44829         15.25459   9.519680  52.09525 114.44275  45.93132 113.40909  45.90730 112.45383  52.07123 113.48749
      13  48.97725 112.49266         15.26632   9.519680  52.07123 113.48749  45.90730 112.45383  45.88326 111.49783  52.04719 112.53149
      13  48.95320 111.53629         15.27807   9.519680  52.04719 112.53149  45.88326 111.49783  45.85920 110.54109  52.02313 111.57476
      13  48.92913 110.57919         15.28983   9.519680  52.02313 111.57476  45.85920 110.54109  45.83512 109.58362  51.99905 110.61729
      13  48.90504 109.62135         15.30159   9.519680  51.99905 110.61729  45.83512 109.58362  45.81103 108.62542  51.97496 109.65908
      13  48.88094 108.66278         15.31337   9.519680  51.97496 109.65908  45.81103 108.62542  45.78691 107.66647  51.95084 108.70014
      13  48.85681 107.70347         15.32515   9.519680  51.95084 108.70014  45.78691 107.66647  45.76278 106.70679  51.92671 107.74046
      13  48.83267 106.74341         15.33695   9.519680  51.92671 107.74046  45.76278 106.70679  45.73863 105.74637  51.90256 106.78004
      13  48.80851 105.78262         15.34875   9.519680  51.90256 106.78004  45.73863 105.74637  45.71446 104.78521  51.87839 105.81888
      13  48.78433 104.82109         15.36056   9.519680  51.87839 105.81888  45.71446 104.78521  45.69027 103.82331  51.85420 104.85698
      13  48.76013 103.85883         15.37238   9.519680  51.85420 104.85698  45.69027 103.82331  45.66606 102.86067  51.82999 103.89434
      13  48.73591 102.89582         15.38421   9.519680  51.82999 103.89434  45.66606 102.86067  45.64184 101.89729  51.80577 102.93096
      13  48.71168 101.93206         15.39605   9.519680  51.80577 102.93096  45.64184 101.89729  45.61759 100.93317  51.78152 101.96684
      13  48.68742 100.96757         15.40790   9.519680  51.78152 101.96684  45.61759 100.93317  45.59333  99.96831  51.75726 101.00197
      13  48.66315 100.00234         15.41975   9.519680  51.75726 101.00197  45.59333  99.96831  45.56905  99.00270  51.73298 100.03637
      13  48.63886  99.03636         15.43162   9.519680  51.73298 100.03637  45.56905  99.00270  45.54474  98.03635  51.70867  99.07002
      13  48.61455  98.06964         15.44349   9.519680  51.70867  99.07002  45.54474  98.03635  45.52043  97.06926  51.68436  98.10293
      13  48.59022  97.10217         15.45538   9.519680  51.68436  98.10293  45.52043  97.06926  45.49609  96.10142  51.66002  97.13509
      13  48.56587  96.13397         15.46727   9.519680  51.66002  97.13509  45.49609  96.10142  45.47173  95.13284  51.63566  96.16651
      13  48.54151  95.16501         15.47917   9.519680  51.63566  96.16651  45.47173  95.13284  45.44735  94.16352  51.61128  95.19718
      13  48.51712  94.19531         15.49109   9.519680  51.61128  95.19718  45.44735  94.16352  45.42296  93.19344  51.58689  94.22711
      13  48.49272  93.22487         15.50301   9.519680  51.58689  94.22711  45.42296  93.19344  45.39855  92.22262  51.56248  93.25629
      13  48.46830  92.25367         15.51494   9.519680  51.56248  93.25629  45.39855  92.22262  45.37411  91.25106  51.53804  92.28472
      13  48.44385  91.28173         15.52688   9.519680  51.53804  92.28472  45.37411  91.25106  45.34966  90.27874  51.51359  91.31241
      13  48.41939  90.30904         15.53882   9.519680  51.51359  91.31241  45.34966  90.27874  45.32519  89.30568  51.48912  90.33935
      13  48.39492  89.33561         15.55078   9.519680  51.48912  90.33935  45.32519  89.30568  45.30071  88.33187  51.46464  89.36553
      13  48.37042  88.36142         15.56275   9.519680  51.46464  89.36553  45.30071  88.33187  45.27620  87.35731  51.44013  88.39097
      13  48.34590  87.38649         15.57472   9.519680  51.44013  88.39097  45.27620  87.35731  45.25167  86.38200  51.41560  87.41566
      13  48.32136  86.41080         15.58671   9.519680  51.41560  87.41566  45.25167  86.38200  45.22713  85.40594  51.39106  86.43960
      13  48.29681  85.43436         15.59870   9.519680  51.39106  86.43960  45.22713  85.40594  45.20256  84.42913  51.36649  85.46279
      13  48.27224  84.45718         15.61071   9.519680  51.36649  85.46279  45.20256  84.42913  45.17798  83.45156  51.34191  84.48523
      13  48.24764  83.47924         15.62272   9.519680  51.34191  84.48523  45.17798  83.45156  45.15338  82.47325  51.31731  83.50691
      13  48.22303  82.50054         15.63474   9.519680  51.31731  83.50691  45.15338  82.47325  45.12876  81.49418  51.29269  82.52784
      13  48.19840  81.52110         15.64677   9.519680  51.29269  82.52784  45.12876  81.49418  45.10412  80.51436  51.26805  81.54802
      13  48.17375  80.54090         15.65881   9.519680  51.26805  81.54802  45.10412  80.51436  45.07946  79.53378  51.24339  80.56744
      13  48.14909  79.55995         15.67086   9.519680  51.24339  80.56744  45.07946  79.53378  45.05478  78.55245  51.21871  79.58611
      13  48.12440  78.57824         15.68292   9.519680  51.21871  79.58611  45.05478  78.55245  45.03009  77.57036  51.19402  78.60403
      13  48.09969  77.59577         15.69499   9.519680  51.19402  78.60403  45.03009  77.57036  45.00537  76.58752  51.16930  77.62119
      13  48.07497  76.61255         15.70707   9.519680  51.16930  77.62119  45.00537  76.58752  44.98064  75.60392  51.14457  76.63759
      13  48.05022  75.62858         15.71916   9.519680  51.14457  76.63759  44.98064  75.60392  44.95588  74.61957  51.11981  75.65323
      13  48.02546  74.64384         15.73125   9.519680  51.11981  75.65323  44.95588  74.61957  44.93111  73.63446  51.09504  74.66812
      13  48.00068  73.65835         15.74336   9.519680  51.09504  74.66812  44.93111  73.63446  44.90632  72.64858  51.07025  73.68225
      13  47.97588  72.67210         15.75547   9.519680  51.07025  73.68225  44.90632  72.64858  44.88151  71.66196  51.04544  72.69562
      13  47.95106  71.68509         15.76760   9.519680  51.04544  72.69562  44.88151  71.66196  44.85668  70.67457  51.02061  71.70823
      13  47.92622  70.69733         15.77973   9.519680  51.02061  71.70823  44.85668  70.67457  44.83183  69.68642  50.99576  70.72008
      13  47.90136  69.70880         15.79187   9.519680  50.99576  70.72008  44.83183  69.68642  44.80696  68.69751  50.97089  69.73117
      13  47.87648  68.71951         15.80403   9.519680  50.97089  69.73117  44.80696  68.69751  44.78207  67.70784  50.94600  68.74151
      13  47.85158  67.72946         15.81619   9.519680  50.94600  68.74151  44.78207  67.70784  44.75717  66.71741  50.92110  67.75107
      13  47.82667  66.73865         15.82836   9.519680  50.92110  67.75107  44.75717  66.71741  44.73224  65.72622  50.89617  66.75988
      13  47.80173  65.74707         15.84054   9.519680  50.89617  66.75988  44.73224  65.72622  44.70730  64.73426  50.87123  65.76792
      13  47.77678  64.75473         15.85273   9.519680  50.87123  65.76792  44.70730  64.73426  44.68233  63.74154  50.84626  64.77521
      13  47.75181  63.76163         15.86493   9.519680  50.84626  64.77521  44.68233  63.74154  44.65735  62.74806  50.82128  63.78172
      13  47.72681  62.76777         15.87714   9.519680  50.82128  63.78172  44.65735  62.74806  44.63235  61.75381  50.79628  62.78747
      13  47.70180  61.77314         15.88935   9.519680  50.79628  62.78747  44.63235  61.75381  44.60733  60.75880  50.77126  61.79246
      13  47.67677  60.77774         15.90158   9.519680  50.77126  61.79246  44.60733  60.75880  44.58228  59.76302  50.74621  60.79668
      13  47.65172  59.78158         15.91382   9.519680  50.74621  60.79668  44.58228  59.76302  44.55722  58.76647  50.72115  59.80014
      13  47.62665  58.78465         15.92606   9.519680  50.72115  59.80014  44.55722  58.76647  44.53214  57.76916  50.69607  58.80283
      13  47.60156  57.78695         15.93832   9.519680  50.69607  58.80283  44.53214  57.76916  44.50705  56.77108  50.67098  57.80475
      13  47.57645  56.78849         15.95059   9.519680  50.67098  57.80475  44.50705  56.77108  44.48193  55.77223  50.64586  56.80590
      13  47.55132  55.78926         15.96286   9.519680  50.64586  56.80590  44.48193  55.77223  44.45679  54.77262  50.62072  55.80628
      13  47.52618  54.78926         15.97514   9.519680  50.62072  55.80628  44.45679  54.77262  44.43163  53.77223  50.59556  54.80590
      13  47.50101  53.78849         15.98744   9.519680  50.59556  54.80590  44.43163  53.77223  44.40646  52.77108  50.57039  53.80474
      13  47.47583  52.78695         15.99974   9.519680  50.57039  53.80474  44.40646  52.77108  44.38126  51.76915  50.54519  52.80282
      13  47.45062  51.78464         16.01205   9.519680  50.54519  52.80282  44.38126  51.76915  44.35605  50.76646  50.51998  51.80012
      13  47.42540  50.78155         16.02437   9.519680  50.51998  51.80012  44.35605  50.76646  44.33081  49.76299  50.49474  50.79665
      13  47.40015  49.77770         16.03670   9.519680  50.49474  50.79665  44.33081  49.76299  44.30556  48.75875  50.46949  49.79241
      13  47.37489  48.77307         16.04905   9.519680  50.46949  49.79241  44.30556  48.75875  44.28029  47.75373  50.44422  48.78740
      13  47.34961  47.76767         16.06140   9.519680  50.44422  48.78740  44.28029  47.75373  44.25499  46.74795  50.41892  47.78161
      13  47.32430  46.76150         16.07375   9.519680  50.41892  47.78161  44.25499  46.74795  44.22968  45.74139  50.39361  46.77505
      13  47.29898  45.75455         16.08612   9.519680  50.39361  46.77505  44.22968  45.74139  44.20435  44.73405  50.36828  45.76772
      13  47.27364  44.74683         16.09850   9.519680  50.36828  45.76772  44.20435  44.73405  44.17900  43.72594  50.34293  44.75961
      13  47.24828  43.73833         16.11089   9.519680  50.34293  44.75961  44.17900  43.72594  44.15363  42.71706  50.31756  43.75072
      13  47.22290  42.72906         16.12329   9.519680  50.31756  43.75072  44.15363  42.71706  44.12824  41.70739  50.29217  42.74106
      13  47.19750  41.71901         16.13570   9.519680  50.29217  42.74106  44.12824  41.70739  44.10283  40.69696  50.26676  41.73062
      13  47.17208  40.70818         16.14811   9.519680  50.26676  41.73062  44.10283  40.69696  44.07740  39.68574  50.24133  40.71940
      13  47.14664  39.69657         16.16054   9.519680  50.24133  40.71940  44.07740  39.68574  44.05195  38.67374  50.21588  39.70741
      13  47.12118  38.68419         16.17298   9.519680  50.21588  39.70741  44.05195  38.67374  44.02648  37.66097  50.19041  38.69464
      13  47.09570  37.67103         16.18542   9.519680  50.19041  38.69464  44.02648  37.66097  44.00100  36.64742  50.16493  37.68108
      13  47.07021  36.65708         16.19788   9.519680  50.16493  37.68108  44.00100  36.64742  43.97549  35.63308  50.13942  36.66675
      13  47.04469  35.64236         16.21034   9.519680  50.13942  36.66675  43.97549  35.63308  43.94996  34.61797  50.11389  35.65164
      13  47.01915  34.62686         16.22282   9.519680  50.11389  35.65164  43.94996  34.61797  43.92441  33.60208  50.08834  34.63574
      13  46.99360  33.61057         16.23530   9.519680  50.08834  34.63574  43.92441  33.60208  43.89885  32.58540  50.06278  33.61906
      13  46.96802  32.59350         16.24779   9.519680  50.06278  33.61906  43.89885  32.58540  43.87326  31.56794  50.03719  32.60161
      13  46.94242  31.57565         16.26030   9.519680  50.03719  32.60161  43.87326  31.56794  43.84766  30.54970  50.01159  31.58336
      13  46.91681  30.55702         16.27281   9.519680  50.01159  31.58336  43.84766  30.54970  43.82203  29.53067  49.98596  30.56434
      13  46.89117  29.53760         16.28533   9.519680  49.98596  30.56434  43.82203  29.53067  43.79639  28.51086  49.96032  29.54453
      13  46.86552  28.51740         16.29786   9.519680  49.96032  29.54453  43.79639  28.51086  43.77072  27.49027  49.93465  28.52393
      13  46.83984  27.49641         16.31040   9.519680  49.93465  28.52393  43.77072  27.49027  43.74504  26.46889  49.90897  27.50255
      13  46.81415  26.47464         16.32296   9.519680  49.90897  27.50255  43.74504  26.46889  43.71933  25.44672  49.88326  26.48039
      13  46.78843  25.45208         16.33552   9.519680  49.88326  26.48039  43.71933  25.44672  43.69361  24.42377  49.85754  25.45744
      13  46.76270  24.42873         16.34809   9.519680  49.85754  25.45744  43.69361  24.42377  43.66786  23.40003  49.83179  24.43370
      13  46.73695  23.40460         16.36067   9.519680  49.83179  24.43370  43.66786  23.40003  43.64210  22.37551  49.80603  23.40917
      13  46.71117  22.37968         16.37326   9.519680  49.80603  23.40917  43.64210  22.37551  43.61632  21.35019  49.78025  22.38385
      13  46.68538  21.35397         16.38586   9.519680  49.78025  22.38385  43.61632  21.35019  43.59051  20.32409  49.75444  21.35775
      13  46.65957  20.32747         16.39847   9.519680  49.75444  21.35775  43.59051  20.32409  43.56469  19.29719  49.72862  20.33086
      13  46.63373  19.30018         16.41109   9.519680  49.72862  20.33086  43.56469  19.29719  43.53885  18.26951  49.70278  19.30317
      13  46.60788  18.27210         16.42371   9.519680  49.70278  19.30317  43.53885  18.26951  43.51298  17.24103  49.67691  18.27470
      13  46.58201  17.24323         16.43635   9.519680  49.67691  18.27470  43.51298  17.24103  43.48710  16.21176  49.65103  17.24543
      13  46.55611  16.21357         16.44900   9.519680  49.65103  17.24543  43.48710  16.21176  43.46120  15.18171  49.62513  16.21537
      13  46.53020  15.18311         16.46166   9.519680  49.62513  16.21537  43.46120  15.18171  43.43527  14.15085  49.59920  15.18452
      13  46.50427  14.15186         16.47433   9.519680  49.59920  15.18452  43.43527  14.15085  43.40933  13.11921  49.57326  14.15287
      13  46.47831  13.11982         16.48700   9.519680  49.57326  14.15287  43.40933  13.11921  43.38337  12.08677  49.54730  13.12044
      13  46.45234  12.08699         16.49969   9.519680  49.54730  13.12044  43.38337  12.08677  43.35739  11.05354  49.52132  12.08720
      13  46.42635  11.05336         16.51239   9.519680  49.52132  12.08720  43.35739  11.05354  43.33138  10.01951  49.49531  11.05317
      13  46.40034  10.01893         16.52509   9.519680  49.49531  11.05317  43.33138  10.01951  43.30536   8.98469  49.46929  10.01835
      13  46.37430   8.98371         16.53781   9.519680  49.46929  10.01835  43.30536   8.98469  43.27932   7.94907  49.44325   8.98273
      13  46.34825   7.94769         16.55054   9.519680  49.44325   8.98273  43.27932   7.94907  43.25325   6.91265  49.41718   7.94631
      13  46.32218   6.91087         16.56327   9.519680  49.41718   7.94631  43.25325   6.91265  43.22717   5.87543  49.39110   6.90910
      13  46.29609   5.87326         16.57602   9.519680  49.39110   6.90910  43.22717   5.87543  43.20107   4.83742  49.36500   5.87109
      13  46.26997   4.83485         16.58878   9.519680  49.36500   5.87109  43.20107   4.83742  43.17495   3.79861  49.33888   4.83227
      13  46.24384   3.79564         16.60154   9.519680  49.33888   4.83227  43.17495   3.79861  43.14880   2.75900  49.31273   3.79266
      13  46.21769   2.75562         16.61432   9.519680  49.31273   3.79266  43.14880   2.75900  43.12264   1.71859  49.28657   2.75225
      13  46.19151   1.71481         16.62710   9.519680  49.28657   2.75225  43.12264   1.71859  43.09646   0.67738  49.26039   1.71104
      13  46.16532   0.67320         16.63990   9.519680  49.26039   1.71104  43.09646   0.67738  43.07025  -0.36464  49.23418   0.66903
      12  32.66330 127.93542         16.31040  10.281000  35.75579 128.97047  29.60614 127.85500  29.57080 126.90038  35.72046 128.01585
      12  32.62795 126.98044         16.32296  10.281000  35.72046 128.01585  29.57080 126.90038  29.53544 125.94502  35.68510 127.06050
      12  32.59258 126.02472         16.33552  10.281000  35.68510 127.06050  29.53544 125.94502  29.50006 124.98893  35.64971 126.10441
      12  32.55718 125.06826         16.34809  10.281000  35.64971 126.10441  29.50006 124.98893  29.46464 124.03211  35.61429 125.14758
      12  32.52175 124.11107         16.36067  10.281000  35.61429 125.14758  29.46464 124.03211  29.42920 123.07455  35.57885 124.19002
      12  32.48629 123.15314         16.37326  10.281000  35.57885 124.19002  29.42920 123.07455  29.39373 122.11625  35.54338 123.23173
      12  32.45081 122.19447         16.38586  10.281000  35.54338 123.23173  29.39373 122.11625  29.35824 121.15722  35.50789 122.27269
      12  32.41530 121.23507         16.39847  10.281000  35.50789 122.27269  29.35824 121.15722  29.32271 120.19744  35.47236 121.31292
      12  32.37976 120.27492         16.41109  10.281000  35.47236 121.31292  29.32271 120.19744  29.28716 119.23693  35.43681 120.35241
      12  32.34420 119.31404         16.42371  10.281000  35.43681 120.35241  29.28716 119.23693  29.25158 118.27568  35.40124 119.39116
      12  32.30861 118.35242         16.43635  10.281000  35.40124 119.39116  29.25158 118.27568  29.21598 117.31369  35.36563 118.42916
      12  32.27299 117.39006         16.44900  10.281000  35.36563 118.42916  29.21598 117.31369  29.18035 116.35096  35.33000 117.46643
      12  32.23734 116.42696         16.46166  10.281000  35.33000 117.46643  29.18035 116.35096  29.14469 115.38749  35.29434 116.50296
      12  32.20167 115.46312         16.47433  10.281000  35.29434 116.50296  29.14469 115.38749  29.10900 114.42327  35.25865 115.53875
      12  32.16597 114.49853         16.48700  10.281000  35.25865 115.53875  29.10900 114.42327  29.07328 113.45832  35.22293 114.57379
      12  32.13024 113.53321         16.49969  10.281000  35.22293 114.57379  29.07328 113.45832  29.03754 112.49262  35.18719 113.60810
      12  32.09448 112.56714         16.51239  10.281000  35.18719 113.60810  29.03754 112.49262  29.00177 111.52618  35.15142 112.64166
      12  32.05870 111.60033         16.52509  10.281000  35.15142 112.64166  29.00177 111.52618  28.96597 110.55900  35.11562 111.67447
      12  32.02288 110.63277         16.53781  10.281000  35.11562 111.67447  28.96597 110.55900  28.93015 109.59107  35.07980 110.70654
      12  31.98705 109.66447         16.55054  10.281000  35.07980 110.70654  28.93015 109.59107  28.89429 108.62239  35.04395 109.73787
      12  31.95118 108.69542         16.56327  10.281000  35.04395 109.73787  28.89429 108.62239  28.85841 107.65298  35.00806 108.76845
      12  31.91528 107.72563         16.57602  10.281000  35.00806 108.76845  28.85841 107.65298  28.82250 106.68281  34.97216 107.79829
      12  31.87936 106.75509         16.58878  10.281000  34.97216 107.79829  28.82250 106.68281  28.78657 105.71190  34.93622 106.82737
      12  31.84341 105.78381         16.60154  10.281000  34.93622 106.82737  28.78657 105.71190  28.75061 104.74024  34.90026 105.85571
      12  31.80744 104.81177         16.61432  10.281000  34.90026 105.85571  28.75061 104.74024  28.71461 103.76783  34.86427 104.88331
      12  31.77143 103.83899         16.62710  10.281000  34.86427 104.88331  28.71461 103.76783  28.67860 102.79468  34.82825 103.91015
      12  31.73540 102.86546         16.63990  10.281000  34.82825 103.91015  28.67860 102.79468  28.64255 101.82078  34.79220 102.93625
      12  31.69934 101.89119         16.65270  10.281000  34.79220 102.93625  28.64255 101.82078  28.60648 100.84612  34.75613 101.96160
      12  31.66325 100.91616         16.66552  10.281000  34.75613 101.96160  28.60648 100.84612  28.57037  99.87072  34.72003 100.98619
      12  31.62713  99.94038         16.67834  10.281000  34.72003 100.98619  28.57037  99.87072  28.53424  98.89457  34.68390 100.01004
      12  31.59099  98.96385         16.69117  10.281000  34.68390 100.01004  28.53424  98.89457  28.49809  97.91766  34.64774  99.03314
      12  31.55482  97.98657         16.70402  10.281000  34.64774  99.03314  28.49809  97.91766  28.46190  96.94000  34.61155  98.05548
      12  31.51862  97.00854         16.71687  10.281000  34.61155  98.05548  28.46190  96.94000  28.42569  95.96160  34.57534  97.07707
      12  31.48239  96.02975         16.72974  10.281000  34.57534  97.07707  28.42569  95.96160  28.38945  94.98243  34.53910  96.09791
      12  31.44614  95.05021         16.74261  10.281000  34.53910  96.09791  28.38945  94.98243  28.35318  94.00252  34.50283  95.11799
      12  31.40985  94.06992         16.75550  10.281000  34.50283  95.11799  28.35318  94.00252  28.31688  93.02185  34.46653  94.13732
      12  31.37354  93.08887         16.76839  10.281000  34.46653  94.13732  28.31688  93.02185  28.28056  92.04043  34.43021  93.15590
      12  31.33721  92.10707         16.78129  10.281000  34.43021  93.15590  28.28056  92.04043  28.24420  91.05825  34.39385  92.17372
      12  31.30084  91.12452         16.79421  10.281000  34.39385  92.17372  28.24420  91.05825  28.20782  90.07531  34.35747  91.19079
      12  31.26444  90.14120         16.80713  10.281000  34.35747  91.19079  28.20782  90.07531  28.17141  89.09162  34.32107  90.20709
      12  31.22802  89.15713         16.82006  10.281000  34.32107  90.20709  28.17141  89.09162  28.13498  88.10717  34.28463  89.22265
      12  31.19157  88.17231         16.83301  10.281000  34.28463  89.22265  28.13498  88.10717  28.09851  87.12196  34.24816  88.23744
      12  31.15509  87.18672         16.84596  10.281000  34.24816  88.23744  28.09851  87.12196  28.06202  86.13600  34.21167  87.25148
      12  31.11858  86.20038         16.85892  10.281000  34.21167  87.25148  28.06202  86.13600  28.02550  85.14928  34.17515  86.26475
      12  31.08205  85.21327         16.87190  10.281000  34.17515  86.26475  28.02550  85.14928  27.98895  84.16180  34.13860  85.27727
      12  31.04549  84.22541         16.88488  10.281000  34.13860  85.27727  27.98895  84.16180  27.95237  83.17355  34.10202  84.28903
      12  31.00890  83.23679         16.89787  10.281000  34.10202  84.28903  27.95237  83.17355  27.91577  82.18455  34.06542  83.30003
      12  30.97228  82.24741         16.91088  10.281000  34.06542  83.30003  27.91577  82.18455  27.87913  81.19479  34.02878  82.31026
      12  30.93563  81.25726         16.92389  10.281000  34.02878  82.31026  27.87913  81.19479  27.84247  80.20426  33.99212  81.31974
      12  30.89895  80.26636         16.93691  10.281000  33.99212  81.31974  27.84247  80.20426  27.80578  79.21297  33.95543  80.32845
      12  30.86225  79.27469         16.94995  10.281000  33.95543  80.32845  27.80578  79.21297  27.76906  78.22092  33.91872  79.33640
      12  30.82552  78.28225         16.96299  10.281000  33.91872  79.33640  27.76906  78.22092  27.73232  77.22811  33.88197  78.34359
      12  30.78876  77.28906         16.97604  10.281000  33.88197  78.34359  27.73232  77.22811  27.69554  76.23453  33.84519  77.35001
      12  30.75197  76.29510         16.98911  10.281000  33.84519  77.35001  27.69554  76.23453  27.65874  75.24019  33.80839  76.35567
      12  30.71515  75.30037         17.00218  10.281000  33.80839  76.35567  27.65874  75.24019  27.62191  74.24508  33.77156  75.36056
      12  30.67830  74.30488         17.01527  10.281000  33.77156  75.36056  27.62191  74.24508  27.58505  73.24921  33.73470  74.36468
      12  30.64143  73.30863         17.02836  10.281000  33.73470  74.36468  27.58505  73.24921  27.54816  72.25257  33.69781  73.36804
      12  30.60453  72.31160         17.04146  10.281000  33.69781  73.36804  27.54816  72.25257  27.51124  71.25516  33.66090  72.37064
      12  30.56760  71.31381         17.05458  10.281000  33.66090  72.37064  27.51124  71.25516  27.47430  70.25699  33.62395  71.37246
      12  30.53064  70.31526         17.06770  10.281000  33.62395  71.37246  27.47430  70.25699  27.43733  69.25805  33.58698  70.37352
      12  30.49365  69.31593         17.08083  10.281000  33.58698  70.37352  27.43733  69.25805  27.40032  68.25834  33.54998  69.37381
      12  30.45664  68.31583         17.09398  10.281000  33.54998  69.37381  27.40032  68.25834  27.36329  67.25786  33.51295  68.37333
      12  30.41959  67.31497         17.10713  10.281000  33.51295  68.37333  27.36329  67.25786  27.32624  66.25661  33.47589  67.37208
      12  30.38252  66.31333         17.12030  10.281000  33.47589  67.37208  27.32624  66.25661  27.28915  65.25459  33.43880  66.37006
      12  30.34542  65.31093         17.13347  10.281000  33.43880  66.37006  27.28915  65.25459  27.25203  64.25179  33.40168  65.36727
      12  30.30829  64.30775         17.14666  10.281000  33.40168  65.36727  27.25203  64.25179  27.21489  63.24823  33.36454  64.36371
      12  30.27113  63.30380         17.15985  10.281000  33.36454  64.36371  27.21489  63.24823  27.17772  62.24390  33.32737  63.35937
      12  30.23394  62.29908         17.17306  10.281000  33.32737  63.35937  27.17772  62.24390  27.14051  61.23879  33.29017  62.35426
      12  30.19673  61.29358         17.18627  10.281000  33.29017  62.35426  27.14051  61.23879  27.10328  60.23290  33.25294  61.34838
      12  30.15948  60.28731         17.19950  10.281000  33.25294  61.34838  27.10328  60.23290  27.06603  59.22625  33.21568  60.34172
      12  30.12221  59.28027         17.21273  10.281000  33.21568  60.34172  27.06603  59.22625  27.02874  58.21882  33.17839  59.33429
      12  30.08491  58.27245         17.22598  10.281000  33.17839  59.33429  27.02874  58.21882  26.99142  57.21061  33.14107  58.32609
      12  30.04758  57.26386         17.23923  10.281000  33.14107  58.32609  26.99142  57.21061  26.95408  56.20163  33.10373  57.31711
      12  30.01022  56.25449         17.25250  10.281000  33.10373  57.31711  26.95408  56.20163  26.91670  55.19187  33.06636  56.30735
      12  29.97283  55.24434         17.26578  10.281000  33.06636  56.30735  26.91670  55.19187  26.87930  54.18134  33.02895  55.29681
      12  29.93541  54.23342         17.27906  10.281000  33.02895  55.29681  26.87930  54.18134  26.84187  53.17002  32.99152  54.28550
      12  29.89797  53.22172         17.29236  10.281000  32.99152  54.28550  26.84187  53.17002  26.80441  52.15793  32.95406  53.27341
      12  29.86049  52.20924         17.30567  10.281000  32.95406  53.27341  26.80441  52.15793  26.76692  51.14506  32.91657  52.26054
      12  29.82299  51.19598         17.31898  10.281000  32.91657  52.26054  26.76692  51.14506  26.72940  50.13141  32.87906  51.24689
      12  29.78546  50.18194         17.33231  10.281000  32.87906  51.24689  26.72940  50.13141  26.69186  49.11698  32.84151  50.23246
      12  29.74790  49.16712         17.34565  10.281000  32.84151  50.23246  26.69186  49.11698  26.65428  48.10177  32.80393  49.21725
      12  29.71031  48.15152         17.35900  10.281000  32.80393  49.21725  26.65428  48.10177  26.61668  47.08578  32.76633  48.20126
      12  29.67269  47.13513         17.37235  10.281000  32.76633  48.20126  26.61668  47.08578  26.57905  46.06901  32.72870  47.18448
      12  29.63504  46.11797         17.38572  10.281000  32.72870  47.18448  26.57905  46.06901  26.54138  45.05145  32.69104  46.16693
      12  29.59736  45.10002         17.39910  10.281000  32.69104  46.16693  26.54138  45.05145  26.50369  44.03312  32.65334  45.14859
      12  29.55966  44.08129         17.41249  10.281000  32.65334  45.14859  26.50369  44.03312  26.46597  43.01399  32.61562  44.12947
      12  29.52192  43.06178         17.42589  10.281000  32.61562  44.12947  26.46597  43.01399  26.42822  41.99409  32.57787  43.10956
      12  29.48416  42.04148         17.43930  10.281000  32.57787  43.10956  26.42822  41.99409  26.39044  40.97340  32.54010  42.08887
      12  29.44637  41.02040         17.45272  10.281000  32.54010  42.08887  26.39044  40.97340  26.35264  39.95192  32.50229  41.06739
      12  29.40855  39.99853         17.46615  10.281000  32.50229  41.06739  26.35264  39.95192  26.31480  38.92966  32.46445  40.04513
      12  29.37069  38.97587         17.47959  10.281000  32.46445  40.04513  26.31480  38.92966  26.27694  37.90661  32.42659  39.02208
      12  29.33281  37.95243         17.49304  10.281000  32.42659  39.02208  26.27694  37.90661  26.23904  36.88277  32.38869  37.99825
      12  29.29491  36.92820         17.50650  10.281000  32.38869  37.99825  26.23904  36.88277  26.20112  35.85815  32.35077  36.97362
      12  29.25697  35.90318         17.51998  10.281000  32.35077  36.97362  26.20112  35.85815  26.16316  34.83273  32.31282  35.94821
      12  29.21900  34.87737         17.53346  10.281000  32.31282  35.94821  26.16316  34.83273  26.12518  33.80653  32.27483  34.92201
      12  29.18100  33.85077         17.54695  10.281000  32.27483  34.92201  26.12518  33.80653  26.08717  32.77954  32.23682  33.89501
      12  29.14298  32.82339         17.56045  10.281000  32.23682  33.89501  26.08717  32.77954  26.04913  31.75176  32.19878  32.86723
      12  29.10492  31.79521         17.57397  10.281000  32.19878  32.86723  26.04913  31.75176  26.01106  30.72318  32.16071  31.83866
      12  29.06684  30.76624         17.58749  10.281000  32.16071  31.83866  26.01106  30.72318  25.97296  29.69382  32.12261  30.80929
      12  29.02872  29.73648         17.60102  10.281000  32.12261  30.80929  25.97296  29.69382  25.93483  28.66366  32.08448  29.77914
      12  28.99058  28.70593         17.61457  10.281000  32.08448  29.77914  25.93483  28.66366  25.89667  27.63271  32.04633  28.74819
      12  28.95241  27.67458         17.62812  10.281000  32.04633  28.74819  25.89667  27.63271  25.85849  26.60097  32.00814  27.71645
      12  28.91421  26.64244         17.64169  10.281000  32.00814  27.71645  25.85849  26.60097  25.82027  25.56843  31.96992  26.68391
      12  28.87597  25.60951         17.65526  10.281000  31.96992  26.68391  25.82027  25.56843  25.78202  24.53510  31.93168  25.65058
      12  28.83771  24.57578         17.66885  10.281000  31.93168  25.65058  25.78202  24.53510  25.74375  23.50098  31.89340  24.61645
      12  28.79942  23.54125         17.68245  10.281000  31.89340  24.61645  25.74375  23.50098  25.70544  22.46605  31.85510  23.58153
      12  28.76110  22.50593         17.69605  10.281000  31.85510  23.58153  25.70544  22.46605  25.66711  21.43034  31.81676  22.54581
      12  28.72275  21.46982         17.70967  10.281000  31.81676  22.54581  25.66711  21.43034  25.62875  20.39382  31.77840  21.50930
      12  28.68438  20.43290         17.72330  10.281000  31.77840  21.50930  25.62875  20.39382  25.59035  19.35651  31.74000  20.47198
      12  28.64597  19.39519         17.73694  10.281000  31.74000  20.47198  25.59035  19.35651  25.55193  18.31840  31.70158  19.43387
      12  28.60753  18.35668         17.75059  10.281000  31.70158  19.43387  25.55193  18.31840  25.51348  17.27949  31.66313  18.39496
      12  28.56906  17.31737         17.76425  10.281000  31.66313  18.39496  25.51348  17.27949  25.47500  16.23978  31.62465  17.35525
      12  28.53057  16.27726         17.77792  10.281000  31.62465  17.35525  25.47500  16.23978  25.43648  15.19927  31.58614  16.31474
      12  28.49204  15.23635         17.79160  10.281000  31.58614  16.31474  25.43648  15.19927  25.39794  14.15796  31.54759  15.27343
      12  28.45348  14.19464         17.80529  10.281000  31.54759  15.27343  25.39794  14.15796  25.35937  13.11584  31.50902  14.23132
      12  28.41490  13.15212         17.81899  10.281000  31.50902  14.23132  25.35937  13.11584  25.32077  12.07293  31.47042  13.18840
      12  28.37628  12.10881         17.83270  10.281000  31.47042  13.18840  25.32077  12.07293  25.28214  11.02921  31.43179  12.14469
      12  28.33764  11.06469         17.84642  10.281000  31.43179  12.14469  25.28214  11.02921  25.24348   9.98469  31.39313  11.10017
      12  28.29896  10.01977         17.86016  10.281000  31.39313  11.10017  25.24348   9.98469  25.20479   8.93937  31.35444  10.05484
      12  28.26026   8.97404         17.87390  10.281000  31.35444  10.05484  25.20479   8.93937  25.16607   7.89324  31.31572   9.00872
      12  28.22152   7.92751         17.88766  10.281000  31.31572   9.00872  25.16607   7.89324  25.12732   6.84631  31.27697   7.96178
      12  28.18276   6.88018         17.90142  10.281000  31.27697   7.96178  25.12732   6.84631  25.08854   5.79857  31.23819   6.91405
      12  28.14396   5.83204         17.91520  10.281000  31.23819   6.91405  25.08854   5.79857  25.04973   4.75003  31.19938   5.86550
      12  28.10514   4.78309         17.92898  10.281000  31.19938   5.86550  25.04973   4.75003  25.01089   3.70068  31.16055   4.81615
      12  28.06629   3.73333         17.94278  10.281000  31.16055   4.81615  25.01089   3.70068  24.97202   2.65052  31.12168   3.76599
      12  28.02740   2.68277         17.95659  10.281000  31.12168   3.76599  24.97202   2.65052  24.93313   1.59955  31.08278   2.71502
      12  27.98849   1.63140         17.97041  10.281000  31.08278   2.71502  24.93313   1.59955  24.89420   0.54777  31.04385   1.66325
      12  27.94954   0.57922         17.98423  10.281000  31.04385   1.66325  24.89420   0.54777  24.85524  -0.50481  31.00489   0.61066
      11  12.93082 127.77819         17.72330  11.124100  16.02001 128.84719   9.88744 127.64135   9.84163 126.70920  15.97420 127.91504
      11  12.88500 126.84569         17.73694  11.124100  15.97420 127.91504   9.84163 126.70920   9.79579 125.77633  15.92837 126.98218
      11  12.83914 125.91246         17.75059  11.124100  15.92837 126.98218   9.79579 125.77633   9.74992 124.84275  15.88249 126.04859
      11  12.79325 124.97852         17.76425  11.124100  15.88249 126.04859   9.74992 124.84275   9.70401 123.90845  15.83658 125.11429
      11  12.74732 124.04386         17.77792  11.124100  15.83658 125.11429   9.70401 123.90845   9.65806 122.97343  15.79064 124.17927
      11  12.70136 123.10848         17.79160  11.124100  15.79064 124.17927   9.65806 122.97343   9.61208 122.03769  15.74466 123.24353
      11  12.65536 122.17238         17.80529  11.124100  15.74466 123.24353   9.61208 122.03769   9.56607 121.10123  15.69864 122.30707
      11  12.60933 121.23556         17.81899  11.124100  15.69864 122.30707   9.56607 121.10123   9.52002 120.16405  15.65259 121.36989
      11  12.56326 120.29802         17.83270  11.124100  15.65259 121.36989   9.52002 120.16405   9.47393 119.22615  15.60650 120.43199
      11  12.51715 119.35976         17.84642  11.124100  15.60650 120.43199   9.47393 119.22615   9.42781 118.28753  15.56038 119.49337
      11  12.47101 118.42077         17.86016  11.124100  15.56038 119.49337   9.42781 118.28753   9.38165 117.34818  15.51422 118.55402
      11  12.42484 117.48107         17.87390  11.124100  15.51422 118.55402   9.38165 117.34818   9.33546 116.40811  15.46803 117.61395
      11  12.37863 116.54064         17.88766  11.124100  15.46803 117.61395   9.33546 116.40811   9.28923 115.46732  15.42180 116.67316
      11  12.33238 115.59948         17.90142  11.124100  15.42180 116.67316   9.28923 115.46732   9.24296 114.52580  15.37554 115.73165
      11  12.28610 114.65761         17.91520  11.124100  15.37554 115.73165   9.24296 114.52580   9.19666 113.58356  15.32924 114.78941
      11  12.23978 113.71500         17.92898  11.124100  15.32924 114.78941   9.19666 113.58356   9.15033 112.64060  15.28290 113.84644
      11  12.19343 112.77167         17.94278  11.124100  15.28290 113.84644   9.15033 112.64060   9.10396 111.69691  15.23653 112.90275
      11  12.14704 111.82762         17.95659  11.124100  15.23653 112.90275   9.10396 111.69691   9.05755 110.75249  15.19012 111.95833
      11  12.10061 110.88284         17.97041  11.124100  15.19012 111.95833   9.05755 110.75249   9.01111 109.80735  15.14368 111.01319
      11  12.05415 109.93733         17.98423  11.124100  15.14368 111.01319   9.01111 109.80735   8.96463 108.86148  15.09720 110.06732
      11  12.00766 108.99110         17.99807  11.124100  15.09720 110.06732   8.96463 108.86148   8.91811 107.91488  15.05069 109.12072
      11  11.96113 108.04413         18.01192  11.124100  15.05069 109.12072   8.91811 107.91488   8.87156 106.96755  15.00414 108.17339
      11  11.91456 107.09644         18.02578  11.124100  15.00414 108.17339   8.87156 106.96755   8.82498 106.01949  14.95755 107.22533
      11  11.86795 106.14802         18.03966  11.124100  14.95755 107.22533   8.82498 106.01949   8.77836 105.07071  14.91093 106.27655
      11  11.82131 105.19887         18.05354  11.124100  14.91093 106.27655   8.77836 105.07071   8.73170 104.12119  14.86427 105.32703
      11  11.77464 104.24899         18.06743  11.124100  14.86427 105.32703   8.73170 104.12119   8.68501 103.17094  14.81758 104.37678
      11  11.72793 103.29837         18.08133  11.124100  14.81758 104.37678   8.68501 103.17094   8.63828 102.21996  14.77085 103.42581
      11  11.68118 102.34703         18.09525  11.124100  14.77085 103.42581   8.63828 102.21996   8.59151 101.26825  14.72408 102.47410
      11  11.63440 101.39495         18.10917  11.124100  14.72408 102.47410   8.59151 101.26825   8.54471 100.31581  14.67728 101.52165
      11  11.58758 100.44215         18.12311  11.124100  14.67728 101.52165   8.54471 100.31581   8.49787  99.36264  14.63045 100.56848
      11  11.54072  99.48860         18.13705  11.124100  14.63045 100.56848   8.49787  99.36264   8.45100  98.40873  14.58357  99.61457
      11  11.49383  98.53433         18.15101  11.124100  14.58357  99.61457   8.45100  98.40873   8.40409  97.45409  14.53666  98.65993
      11  11.44690  97.57932         18.16498  11.124100  14.53666  98.65993   8.40409  97.45409   8.35715  96.49871  14.48972  97.70455
      11  11.39994  96.62357         18.17896  11.124100  14.48972  97.70455   8.35715  96.49871   8.31016  95.54260  14.44274  96.74844
      11  11.35294  95.66709         18.19295  11.124100  14.44274  96.74844   8.31016  95.54260   8.26315  94.58575  14.39572  95.79159
      11  11.30591  94.70988         18.20695  11.124100  14.39572  95.79159   8.26315  94.58575   8.21609  93.62816  14.34866  94.83400
      11  11.25883  93.75192         18.22096  11.124100  14.34866  94.83400   8.21609  93.62816   8.16900  92.66984  14.30157  93.87568
      11  11.21173  92.79323         18.23498  11.124100  14.30157  93.87568   8.16900  92.66984   8.12188  91.71078  14.25445  92.91662
      11  11.16458  91.83380         18.24901  11.124100  14.25445  92.91662   8.12188  91.71078   8.07471  90.75098  14.20729  91.95683
      11  11.11740  90.87364         18.26305  11.124100  14.20729  91.95683   8.07471  90.75098   8.02751  89.79045  14.16009  90.99629
      11  11.07018  89.91273         18.27711  11.124100  14.16009  90.99629   8.02751  89.79045   7.98028  88.82917  14.11285  90.03502
      11  11.02293  88.95109         18.29117  11.124100  14.11285  90.03502   7.98028  88.82917   7.93301  87.86716  14.06558  89.07300
      11  10.97564  87.98870         18.30525  11.124100  14.06558  89.07300   7.93301  87.86716   7.88570  86.90440  14.01827  88.11025
      11  10.92831  87.02558         18.31933  11.124100  14.01827  88.11025   7.88570  86.90440   7.83835  85.94091  13.97093  87.14675
      11  10.88095  86.06171         18.33343  11.124100  13.97093  87.14675   7.83835  85.94091   7.79097  84.97667  13.92355  86.18251
      11  10.83355  85.09710         18.34754  11.124100  13.92355  86.18251   7.79097  84.97667   7.74356  84.01169  13.87613  85.21753
      11  10.78612  84.13175         18.36166  11.124100  13.87613  85.21753   7.74356  84.01169   7.69610  83.04597  13.82868  84.25181
      11  10.73864  83.16566         18.37579  11.124100  13.82868  84.25181   7.69610  83.04597   7.64861  82.07951  13.78119  83.28535
      11  10.69114  82.19882         18.38993  11.124100  13.78119  83.28535   7.64861  82.07951   7.60109  81.11230  13.73366  82.31814
      11  10.64359  81.23124         18.40408  11.124100  13.73366  82.31814   7.60109  81.11230   7.55352  80.14434  13.68610  81.35019
      11  10.59601  80.26292         18.41824  11.124100  13.68610  81.35019   7.55352  80.14434   7.50592  79.17565  13.63850  80.38149
      11  10.54839  79.29385         18.43242  11.124100  13.63850  80.38149   7.50592  79.17565   7.45829  78.20620  13.59086  79.41205
      11  10.50074  78.32403         18.44660  11.124100  13.59086  79.41205   7.45829  78.20620   7.41061  77.23601  13.54319  78.44186
      11  10.45304  77.35347         18.46080  11.124100  13.54319  78.44186   7.41061  77.23601   7.36290  76.26508  13.49548  77.47092
      11  10.40532  76.38216         18.47500  11.124100  13.49548  77.47092   7.36290  76.26508   7.31516  75.29340  13.44773  76.49924
      11  10.35755  75.41010         18.48922  11.124100  13.44773  76.49924   7.31516  75.29340   7.26737  74.32096  13.39995  75.52681
      11  10.30975  74.43730         18.50345  11.124100  13.39995  75.52681   7.26737  74.32096   7.21955  73.34779  13.35213  74.55363
      11  10.26191  73.46374         18.51769  11.124100  13.35213  74.55363   7.21955  73.34779   7.17170  72.37386  13.30427  73.57970
      11  10.21404  72.48944         18.53194  11.124100  13.30427  73.57970   7.17170  72.37386   7.12380  71.39918  13.25637  72.60502
      11  10.16612  71.51439         18.54620  11.124100  13.25637  72.60502   7.12380  71.39918   7.07587  70.42375  13.20844  71.62960
      11  10.11817  70.53859         18.56047  11.124100  13.20844  71.62960   7.07587  70.42375   7.02790  69.44758  13.16048  70.65342
      11  10.07019  69.56203         18.57475  11.124100  13.16048  70.65342   7.02790  69.44758   6.97990  68.47065  13.11247  69.67649
      11  10.02216  68.58473         18.58905  11.124100  13.11247  69.67649   6.97990  68.47065   6.93186  67.49297  13.06443  68.69881
      11   9.97410  67.60667         18.60335  11.124100  13.06443  68.69881   6.93186  67.49297   6.88378  66.51453  13.01635  67.72037
      11   9.92601  66.62786         18.61767  11.124100  13.01635  67.72037   6.88378  66.51453   6.83566  65.53535  12.96824  66.74119
      11   9.87787  65.64830         18.63199  11.124100  12.96824  66.74119   6.83566  65.53535   6.78751  64.55541  12.92008  65.76125
      11   9.82970  64.66798         18.64633  11.124100  12.92008  65.76125   6.78751  64.55541   6.73932  63.57471  12.87189  64.78055
      11   9.78150  63.68691         18.66068  11.124100  12.87189  64.78055   6.73932  63.57471   6.69110  62.59326  12.82367  63.79911
      11   9.73325  62.70508         18.67504  11.124100  12.82367  63.79911   6.69110  62.59326   6.64283  61.61106  12.77540  62.81690
      11   9.68497  61.72250         18.68941  11.124100  12.77540  62.81690   6.64283  61.61106   6.59453  60.62810  12.72710  61.83394
      11   9.63665  60.73916         18.70379  11.124100  12.72710  61.83394   6.59453  60.62810   6.54619  59.64438  12.67877  60.85023
      11   9.58829  59.75507         18.71819  11.124100  12.67877  60.85023   6.54619  59.64438   6.49782  58.65991  12.63039  59.86575
      11   9.53990  58.77022         18.73259  11.124100  12.63039  59.86575   6.49782  58.65991   6.44941  57.67468  12.58198  58.88052
      11   9.49147  57.78461         18.74700  11.124100  12.58198  58.88052   6.44941  57.67468   6.40096  56.68869  12.53353  57.89453
      11   9.44300  56.79824         18.76143  11.124100  12.53353  57.89453   6.40096  56.68869   6.35247  55.70194  12.48504  56.90779
      11   9.39449  55.81111         18.77587  11.124100  12.48504  56.90779   6.35247  55.70194   6.30395  54.71444  12.43652  55.92028
      11   9.34595  54.82322         18.79032  11.124100  12.43652  55.92028   6.30395  54.71444   6.25538  53.72617  12.38796  54.93201
      11   9.29737  53.83458         18.80478  11.124100  12.38796  54.93201   6.25538  53.72617   6.20678  52.73714  12.33936  53.94299
      11   9.24875  52.84517         18.81925  11.124100  12.33936  53.94299   6.20678  52.73714   6.15815  51.74735  12.29072  52.95320
      11   9.20010  51.85500         18.83373  11.124100  12.29072  52.95320   6.15815  51.74735   6.10947  50.75680  12.24205  51.96265
      11   9.15141  50.86407         18.84822  11.124100  12.24205  51.96265   6.10947  50.75680   6.06076  49.76549  12.19334  50.97133
      11   9.10268  49.87238         18.86273  11.124100  12.19334  50.97133   6.06076  49.76549   6.01201  48.77342  12.14459  49.97926
      11   9.05391  48.87992         18.87724  11.124100  12.14459  49.97926   6.01201  48.77342   5.96323  47.78058  12.09580  48.98642
      11   9.00510  47.88670         18.89177  11.124100  12.09580  48.98642   5.96323  47.78058   5.91440  46.78698  12.04698  47.99282
      11   8.95626  46.89271         18.90631  11.124100  12.04698  47.99282   5.91440  46.78698   5.86554  45.79261  11.99812  46.99845
      11   8.90738  45.89796         18.92085  11.124100  11.99812  46.99845   5.86554  45.79261   5.81664  44.79748  11.94922  46.00332
      11   8.85846  44.90245         18.93541  11.124100  11.94922  46.00332   5.81664  44.79748   5.76771  43.80158  11.90028  45.00742
      11   8.80951  43.90617         18.94999  11.124100  11.90028  45.00742   5.76771  43.80158   5.71873  42.80491  11.85131  44.01076
      11   8.76051  42.90912         18.96457  11.124100  11.85131  44.01076   5.71873  42.80491   5.66972  41.80748  11.80229  43.01332
      11   8.71148  41.91130         18.97916  11.124100  11.80229  43.01332   5.66972  41.80748   5.62067  40.80928  11.75324  42.01513
      11   8.66241  40.91272         18.99377  11.124100  11.75324  42.01513   5.62067  40.80928   5.57158  39.81032  11.70416  41.01616
      11   8.61331  39.91337         19.00838  11.124100  11.70416  41.01616   5.57158  39.81032   5.52246  38.81058  11.65503  40.01642
      11   8.56416  38.91325         19.02301  11.124100  11.65503  40.01642   5.52246  38.81058   5.47330  37.81008  11.60587  39.01592
      11   8.51498  37.91236         19.03765  11.124100  11.60587  39.01592   5.47330  37.81008   5.42410  36.80880  11.55667  38.01464
      11   8.46576  36.91070         19.05230  11.124100  11.55667  38.01464   5.42410  36.80880   5.37486  35.80676  11.50743  37.01260
      11   8.41651  35.90827         19.06696  11.124100  11.50743  37.01260   5.37486  35.80676   5.32558  34.80394  11.45815  36.00978
      11   8.36721  34.90507         19.08163  11.124100  11.45815  36.00978   5.32558  34.80394   5.27627  33.80035  11.40884  35.00619
      11   8.31788  33.90109         19.09632  11.124100  11.40884  35.00619   5.27627  33.80035   5.22691  32.79599  11.35949  34.00183
      11   8.26851  32.89634         19.11101  11.124100  11.35949  34.00183   5.22691  32.79599   5.17752  31.79086  11.31010  32.99670
      11   8.21910  31.89082         19.12572  11.124100  11.31010  32.99670   5.17752  31.79086   5.12810  30.78495  11.26067  31.99079
      11   8.16965  30.88453         19.14044  11.124100  11.26067  31.99079   5.12810  30.78495   5.07863  29.77827  11.21120  30.98411
      11   8.12016  29.87746         19.15517  11.124100  11.21120  30.98411   5.07863  29.77827   5.02912  28.77081  11.16170  29.97665
      11   8.07064  28.86962         19.16991  11.124100  11.16170  29.97665   5.02912  28.77081   4.97958  27.76258  11.11215  28.96842
      11   8.02108  27.86100         19.18466  11.124100  11.11215  28.96842   4.97958  27.76258   4.93000  26.75357  11.06257  27.95942
      11   7.97148  26.85160         19.19942  11.124100  11.06257  27.95942   4.93000  26.75357   4.88038  25.74379  11.01295  26.94963
      11   7.92184  25.84143         19.21420  11.124100  11.01295  26.94963   4.88038  25.74379   4.83073  24.73323  10.96330  25.93907
      11   7.87216  24.83048         19.22898  11.124100  10.96330  25.93907   4.83073  24.73323   4.78103  23.72189  10.91360  24.92773
      11   7.82245  23.81875         19.24378  11.124100  10.91360  24.92773   4.78103  23.72189   4.73130  22.70978  10.86387  23.91562
      11   7.77270  22.80625         19.25859  11.124100  10.86387  23.91562   4.73130  22.70978   4.68152  21.69688  10.81410  22.90272
      11   7.72291  21.79296         19.27341  11.124100  10.81410  22.90272   4.68152  21.69688   4.63171  20.68321  10.76429  21.88905
      11   7.67308  20.77890         19.28824  11.124100  10.76429  21.88905   4.63171  20.68321   4.58187  19.66875  10.71444  20.87459
      11   7.62321  19.76405         19.30308  11.124100  10.71444  20.87459   4.58187  19.66875   4.53198  18.65352  10.66455  19.85936
      11   7.57330  18.74843         19.31794  11.124100  10.66455  19.85936   4.53198  18.65352   4.48205  17.63750  10.61463  18.84334
      11   7.52336  17.73202         19.33280  11.124100  10.61463  18.84334   4.48205  17.63750   4.43209  16.62070  10.56466  17.82654
      11   7.47338  16.71483         19.34768  11.124100  10.56466  17.82654   4.43209  16.62070   4.38209  15.60312  10.51466  16.80896
      11   7.42335  15.69686         19.36257  11.124100  10.51466  16.80896   4.38209  15.60312   4.33205  14.58476  10.46462  15.79060
      11   7.37330  14.67810         19.37747  11.124100  10.46462  15.79060   4.33205  14.58476   4.28197  13.56561  10.41454  14.77145
      11   7.32320  13.65856         19.39238  11.124100  10.41454  14.77145   4.28197  13.56561   4.23185  12.54568  10.36442  13.75152
      11   7.27306  12.63824         19.40730  11.124100  10.36442  13.75152   4.23185  12.54568   4.18170  11.52496  10.31427  12.73080
      11   7.22288  11.61713         19.42224  11.124100  10.31427  12.73080   4.18170  11.52496   4.13150  10.50346  10.26407  11.70930
      11   7.17267  10.59523         19.43718  11.124100  10.26407  11.70930   4.13150  10.50346   4.08127   9.48117  10.21384  10.68701
      11   7.12242   9.57255         19.45214  11.124100  10.21384  10.68701   4.08127   9.48117   4.03100   8.45809  10.16357   9.66394
      11   7.07213   8.54908         19.46711  11.124100  10.16357   9.66394   4.03100   8.45809   3.98069   7.43423  10.11326   8.64007
      11   7.02180   7.52483         19.48209  11.124100  10.11326   8.64007   3.98069   7.43423   3.93034   6.40958  10.06291   7.61542
      11   6.97143   6.49978         19.49708  11.124100  10.06291   7.61542   3.93034   6.40958   3.87995   5.38414  10.01252   6.58998
      11   6.92102   5.47395         19.51208  11.124100  10.01252   6.58998   3.87995   5.38414   3.82952   4.35792   9.96209   5.56376
      11   6.87057   4.44733         19.52710  11.124100   9.96209   5.56376   3.82952   4.35792   3.77906   3.33090   9.91163   4.53674
      11   6.82009   3.41991         19.54213  11.124100   9.91163   4.53674   3.77906   3.33090   3.72855   2.30309   9.86112   3.50893
      11   6.76957   2.39171         19.55716  11.124100   9.86112   3.50893   3.72855   2.30309   3.67801   1.27449   9.81058   2.48033
      11   6.71900   1.36272         19.57221  11.124100   9.81058   2.48033   3.67801   1.27449   3.62742   0.24510   9.76000   1.45094
      11   6.66840   0.33293         19.58728  11.124100   9.76000   1.45094   3.62742   0.24510   3.57680  -0.78508   9.70938   0.42076
