\wavsamp version 3.0 (Fri Jul 28 12:09:58 PDT 2000)
\processing time 09:28:49 PST 10/16/2001
| order |x_center |y_center |   wavelength   |  angle   |   x0    |   y0    |   x1    |   y1    |   x2    |   y2    |   x3    |   y3    |
| int   |  real   |  real   |    real        |   real   |  real   |  real   |  real   |  real   |  real   |  real   |  real   |  real   |
2         60.75172  78.86935          5.27230  -1.880000  76.65864  78.83240  44.87576  79.87564  44.84472  78.90629  76.62761  77.86305
2         60.72052  77.89996          5.30254  -1.880000  76.62761  77.86305  44.84472  78.90629  44.81336  77.93686  76.59624  76.89362
2         60.68900  76.93050          5.33278  -1.880000  76.59624  76.89362  44.81336  77.93686  44.78167  76.96736  76.56455  75.92412
2         60.65714  75.96097          5.36303  -1.880000  76.56455  75.92412  44.78167  76.96736  44.74964  75.99780  76.53253  74.95456
2         60.62495  74.99137          5.39327  -1.880000  76.53253  74.95456  44.74964  75.99780  44.71729  75.02817  76.50017  73.98493
2         60.59243  74.02171          5.42351  -1.880000  76.50017  73.98493  44.71729  75.02817  44.68461  74.05847  76.46749  73.01523
2         60.55958  73.05197          5.45375  -1.880000  76.46749  73.01523  44.68461  74.05847  44.65160  73.08870  76.43448  72.04546
2         60.52641  72.08217          5.48399  -1.880000  76.43448  72.04546  44.65160  73.08870  44.61825  72.11886  76.40114  71.07562
2         60.49290  71.11230          5.51424  -1.880000  76.40114  71.07562  44.61825  72.11886  44.58458  71.14895  76.36746  70.10571
2         60.45906  70.14236          5.54448  -1.880000  76.36746  70.10571  44.58458  71.14895  44.55058  70.17898  76.33346  69.13574
2         60.42489  69.17235          5.57472  -1.880000  76.33346  69.13574  44.55058  70.17898  44.51624  69.20894  76.29913  68.16570
2         60.39040  68.20227          5.60496  -1.880000  76.29913  68.16570  44.51624  69.20894  44.48158  68.23883  76.26447  67.19559
2         60.35557  67.23212          5.63520  -1.880000  76.26447  67.19559  44.48158  68.23883  44.44659  67.26865  76.22947  66.22541
2         60.32041  66.26191          5.66545  -1.880000  76.22947  66.22541  44.44659  67.26865  44.41127  66.29840  76.19415  65.25516
2         60.28493  65.29163          5.69569  -1.880000  76.19415  65.25516  44.41127  66.29840  44.37562  65.32808  76.15850  64.28484
2         60.24911  64.32128          5.72593  -1.880000  76.15850  64.28484  44.37562  65.32808  44.33963  64.35770  76.12252  63.31446
2         60.21296  63.35086          5.75617  -1.880000  76.12252  63.31446  44.33963  64.35770  44.30332  63.38724  76.08621  62.34400
2         60.17648  62.38037          5.78641  -1.880000  76.08621  62.34400  44.30332  63.38724  44.26668  62.41672  76.04956  61.37348
2         60.13968  61.40981          5.81666  -1.880000  76.04956  61.37348  44.26668  62.41672  44.22971  61.44613  76.01259  60.40289
2         60.10254  60.43919          5.84690  -1.880000  76.01259  60.40289  44.22971  61.44613  44.19241  60.47547  75.97529  59.43223
2         60.06508  59.46850          5.87714  -1.880000  75.97529  59.43223  44.19241  60.47547  44.15478  59.50474  75.93766  58.46150
2         60.02728  58.49773          5.90738  -1.880000  75.93766  58.46150  44.15478  59.50474  44.11682  58.53395  75.89970  57.49071
2         59.98915  57.52690          5.93762  -1.880000  75.89970  57.49071  44.11682  58.53395  44.07852  57.56308  75.86141  56.51984
2         59.95070  56.55601          5.96787  -1.880000  75.86141  56.51984  44.07852  57.56308  44.03990  56.59215  75.82279  55.54891
2         59.91191  55.58504          5.99811  -1.880000  75.82279  55.54891  44.03990  56.59215  44.00095  55.62115  75.78384  54.57791
2         59.87280  54.61400          6.02835  -1.880000  75.78384  54.57791  44.00095  55.62115  43.96167  54.65008  75.74455  53.60684
2         59.83335  53.64290          6.05859  -1.880000  75.74455  53.60684  43.96167  54.65008  43.92206  53.67894  75.70494  52.63570
2         59.79357  52.67173          6.08883  -1.880000  75.70494  52.63570  43.92206  53.67894  43.88212  52.70773  75.66500  51.66449
2         59.75347  51.70049          6.11908  -1.880000  75.66500  51.66449  43.88212  52.70773  43.84185  51.73646  75.62473  50.69322
2         59.71303  50.72918          6.14932  -1.880000  75.62473  50.69322  43.84185  51.73646  43.80125  50.76512  75.58413  49.72188
2         59.67227  49.75780          6.17956  -1.880000  75.58413  49.72188  43.80125  50.76512  43.76032  49.79370  75.54320  48.75046
2         59.63117  48.78635          6.20980  -1.880000  75.54320  48.75046  43.76032  49.79370  43.71906  48.82222  75.50194  47.77898
2         59.58975  47.81484          6.24004  -1.880000  75.50194  47.77898  43.71906  48.82222  43.67747  47.85067  75.46035  46.80743
2         59.54799  46.84325          6.27029  -1.880000  75.46035  46.80743  43.67747  47.85067  43.63555  46.87906  75.41843  45.83582
2         59.50591  45.87160          6.30053  -1.880000  75.41843  45.83582  43.63555  46.87906  43.59330  45.90737  75.37618  44.86413
2         59.46349  44.89988          6.33077  -1.880000  75.37618  44.86413  43.59330  45.90737  43.55072  44.93562  75.33360  43.89238
2         59.42075  43.92809          6.36101  -1.880000  75.33360  43.89238  43.55072  44.93562  43.50781  43.96379  75.29069  42.92055
2         59.37767  42.95624          6.39125  -1.880000  75.29069  42.92055  43.50781  43.96379  43.46457  42.99190  75.24745  41.94866
2         59.33427  41.98431          6.42150  -1.880000  75.24745  41.94866  43.46457  42.99190  43.42100  42.01994  75.20388  40.97670
2         59.29053  41.01232          6.45174  -1.880000  75.20388  40.97670  43.42100  42.01994  43.37710  41.04791  75.15999  40.00467
2         59.24647  40.04025          6.48198  -1.880000  75.15999  40.00467  43.37710  41.04791  43.33287  40.07582  75.11576  39.03258
2         59.20208  39.06812          6.51222  -1.880000  75.11576  39.03258  43.33287  40.07582  43.28831  39.10365  75.07120  38.06041
2         59.15735  38.09592          6.54246  -1.880000  75.07120  38.06041  43.28831  39.10365  43.24342  38.13142  75.02631  37.08818
2         59.11230  37.12366          6.57271  -1.880000  75.02631  37.08818  43.24342  38.13142  43.19821  37.15912  74.98109  36.11588
2         59.06691  36.15132          6.60295  -1.880000  74.98109  36.11588  43.19821  37.15912  43.15266  36.18675  74.93554  35.14351
2         59.02120  35.17892          6.63319  -1.880000  74.93554  35.14351  43.15266  36.18675  43.10678  35.21431  74.88966  34.17107
2         58.97516  34.20644          6.66343  -1.880000  74.88966  34.17107  43.10678  35.21431  43.06057  34.24180  74.84345  33.19856
2         58.92878  33.23390          6.69367  -1.880000  74.84345  33.19856  43.06057  34.24180  43.01403  33.26923  74.79691  32.22598
2         58.88208  32.26129          6.72392  -1.880000  74.79691  32.22598  43.01403  33.26923  42.96716  32.29658  74.75005  31.25334
2         58.83505  31.28861          6.75416  -1.880000  74.75005  31.25334  42.96716  32.29658  42.91996  31.32387  74.70285  30.28063
2         58.78768  30.31587          6.78440  -1.880000  74.70285  30.28063  42.91996  31.32387  42.87244  30.35109  74.65532  29.30785
2         58.73999  29.34305          6.81464  -1.880000  74.65532  29.30785  42.87244  30.35109  42.82458  29.37824  74.60746  28.33500
2         58.69197  28.37017          6.84488  -1.880000  74.60746  28.33500  42.82458  29.37824  42.77639  28.40532  74.55927  27.36208
2         58.64361  27.39721          6.87513  -1.880000  74.55927  27.36208  42.77639  28.40532  42.72787  27.43233  74.51076  26.38909
2         58.59493  26.42419          6.90537  -1.880000  74.51076  26.38909  42.72787  27.43233  42.67903  26.45928  74.46191  25.41604
2         58.54592  25.45110          6.93561  -1.880000  74.46191  25.41604  42.67903  26.45928  42.62985  25.48615  74.41273  24.44291
2         58.49658  24.47795          6.96585  -1.880000  74.41273  24.44291  42.62985  25.48615  42.58034  24.51296  74.36322  23.46972
2         58.44690  23.50472          6.99609  -1.880000  74.36322  23.46972  42.58034  24.51296  42.53050  23.53970  74.31339  22.49646
2         58.39690  22.53143          7.02634  -1.880000  74.31339  22.49646  42.53050  23.53970  42.48034  22.56637  74.26322  21.52313
2         58.34657  21.55806          7.05658  -1.880000  74.26322  21.52313  42.48034  22.56637  42.42984  21.59298  74.21272  20.54974
2         58.29591  20.58463          7.08682  -1.880000  74.21272  20.54974  42.42984  21.59298  42.37901  20.61951  74.16189  19.57627
2         58.24492  19.61113          7.11706  -1.880000  74.16189  19.57627  42.37901  20.61951  42.32785  19.64598  74.11074  18.60274
2         58.19359  18.63756          7.14730  -1.880000  74.11074  18.60274  42.32785  19.64598  42.27637  18.67237  74.05925  17.62913
2         58.14194  17.66393          7.17755  -1.880000  74.05925  17.62913  42.27637  18.67237  42.22455  17.69870  74.00743  16.65546
2         58.08996  16.69022          7.20779  -1.880000  74.00743  16.65546  42.22455  17.69870  42.17240  16.72496  73.95529  15.68172
2         58.03765  15.71645          7.23803  -1.880000  73.95529  15.68172  42.17240  16.72496  42.11993  15.75115  73.90281  14.70791
2         57.98501  14.74260          7.26827  -1.880000  73.90281  14.70791  42.11993  15.75115  42.06712  14.77728  73.85000  13.73404
2         57.93204  13.76869          7.29851  -1.880000  73.85000  13.73404  42.06712  14.77728  42.01398  13.80333  73.79687  12.76009
2         57.87873  12.79471          7.32876  -1.880000  73.79687  12.76009  42.01398  13.80333  41.96052  12.82932  73.74340  11.78608
2         57.82510  11.82067          7.35900  -1.880000  73.74340  11.78608  41.96052  12.82932  41.90672  11.85524  73.68961  10.81200
2         57.77114  10.84655          7.38924  -1.880000  73.68961  10.81200  41.90672  11.85524  41.85260  10.88109  73.63548   9.83785
2         57.71685   9.87237          7.41948  -1.880000  73.63548   9.83785  41.85260  10.88109  41.79814   9.90687  73.58102   8.86363
2         57.66223   8.89811          7.44972  -1.880000  73.58102   8.86363  41.79814   9.90687  41.74335   8.93258  73.52624   7.88934
2         57.60728   7.92379          7.47997  -1.880000  73.52624   7.88934  41.74335   8.93258  41.68824   7.95823  73.47112   6.91499
2         57.55200   6.94940          7.51021  -1.880000  73.47112   6.91499  41.68824   7.95823  41.63279   6.98380  73.41568   5.94056
2         57.49639   5.97494          7.54045  -1.880000  73.41568   5.94056  41.63279   6.98380  41.57702   6.00931  73.35990   4.96607
2         57.44045   5.00042          7.57069  -1.880000  73.35990   4.96607  41.57702   6.00931  41.52091   5.03475  73.30380   3.99151
2         57.38418   4.02582          7.60093  -1.880000  73.30380   3.99151  41.52091   5.03475  41.46448   4.06012  73.24736   3.01688
2         57.32758   3.05116          7.63118  -1.880000  73.24736   3.01688  41.46448   4.06012  41.40771   3.08542  73.19059   2.04218
2         57.27065   2.07643          7.66142  -1.880000  73.19059   2.04218  41.40771   3.08542  41.35062   2.11065  73.13350   1.06741
2         57.21339   1.10163          7.69166  -1.880000  73.13350   1.06741  41.35062   2.11065  41.29319   1.13582  73.07607   0.09258
2         57.15580   0.12676          7.72190  -1.880000  73.07607   0.09258  41.29319   1.13582  41.23544   0.16092  73.01832  -0.88232
3         64.40188 127.69362          7.41948  -1.880000  81.41729 127.34847  47.43559 128.46388  47.38647 128.03810  81.36817 126.92269
3         64.35276 127.26651          7.44972  -1.880000  81.36817 126.92269  47.38647 128.03810  47.33735 127.60966  81.31905 126.49425
3         64.30364 126.83673          7.47997  -1.880000  81.31905 126.49425  47.33735 127.60966  47.28823 127.17855  81.26993 126.06314
3         64.25452 126.40429          7.51021  -1.880000  81.26993 126.06314  47.28823 127.17855  47.23911 126.74478  81.22081 125.62936
3         64.20540 125.96918          7.54045  -1.880000  81.22081 125.62936  47.23911 126.74478  47.18999 126.30833  81.17169 125.19292
3         64.15628 125.53141          7.57069  -1.880000  81.17169 125.19292  47.18999 126.30833  47.14087 125.86923  81.12257 124.75381
3         64.10716 125.09097          7.60093  -1.880000  81.12257 124.75381  47.14087 125.86923  47.09175 125.42745  81.07345 124.31204
3         64.05804 124.64786          7.63118  -1.880000  81.07345 124.31204  47.09175 125.42745  47.04263 124.98301  81.02433 123.86760
3         64.00892 124.20208          7.66142  -1.880000  81.02433 123.86760  47.04263 124.98301  46.99351 124.53590  80.97521 123.42049
3         63.95980 123.75364          7.69166  -1.880000  80.97521 123.42049  46.99351 124.53590  46.94439 124.08613  80.92609 122.97072
3         63.91068 123.30254          7.72190  -1.880000  80.92609 122.97072  46.94439 124.08613  46.89527 123.63369  80.87697 122.51828
3         63.86156 122.84877          7.75214  -1.880000  80.87697 122.51828  46.89527 123.63369  46.84615 123.17859  80.82784 122.06317
3         63.81243 122.39233          7.78239  -1.880000  80.82784 122.06317  46.84615 123.17859  46.79703 122.72081  80.77872 121.60540
3         63.76331 121.93322          7.81263  -1.880000  80.77872 121.60540  46.79703 122.72081  46.74790 122.26038  80.72960 121.14496
3         63.71419 121.47145          7.84287  -1.880000  80.72960 121.14496  46.74790 122.26038  46.69878 121.79727  80.68048 120.68186
3         63.66507 121.00701          7.87311  -1.880000  80.68048 120.68186  46.69878 121.79727  46.64966 121.33150  80.63136 120.21609
3         63.61595 120.53991          7.90335  -1.880000  80.63136 120.21609  46.64966 121.33150  46.60054 120.86306  80.58224 119.74765
3         63.56683 120.07014          7.93360  -1.880000  80.58224 119.74765  46.60054 120.86306  46.55142 120.39196  80.53312 119.27655
3         63.51771 119.59770          7.96384  -1.880000  80.53312 119.27655  46.55142 120.39196  46.50230 119.91819  80.48400 118.80278
3         63.46859 119.12260          7.99408  -1.880000  80.48400 118.80278  46.50230 119.91819  46.45318 119.44175  80.43488 118.32634
3         63.41947 118.64483          8.02432  -1.880000  80.43488 118.32634  46.45318 119.44175  46.40406 118.96265  80.38576 117.84724
3         63.37035 118.16439          8.05456  -1.880000  80.38576 117.84724  46.40406 118.96265  46.35494 118.48088  80.33664 117.36547
3         63.32123 117.68129          8.08481  -1.880000  80.33664 117.36547  46.35494 118.48088  46.30582 117.99645  80.28752 116.88103
3         63.27211 117.19552          8.11505  -1.880000  80.28752 116.88103  46.30582 117.99645  46.25670 117.50935  80.23840 116.39393
3         63.22299 116.70709          8.14529  -1.880000  80.23840 116.39393  46.25670 117.50935  46.20758 117.01958  80.18928 115.90416
3         63.17387 116.21599          8.17553  -1.880000  80.18928 115.90416  46.20758 117.01958  46.15846 116.52715  80.14016 115.41173
3         63.12475 115.72222          8.20577  -1.880000  80.14016 115.41173  46.15846 116.52715  46.10934 116.03205  80.09103 114.91663
3         63.07562 115.22579          8.23602  -1.880000  80.09103 114.91663  46.10934 116.03205  46.06022 115.53428  80.04191 114.41886
3         63.02650 114.72669          8.26626  -1.880000  80.04191 114.41886  46.06022 115.53428  46.01109 115.03385  79.99279 113.91843
3         62.97738 114.22492          8.29650  -1.880000  79.99279 113.91843  46.01109 115.03385  45.96197 114.53075  79.94367 113.41533
3         62.92826 113.72049          8.32674  -1.880000  79.94367 113.41533  45.96197 114.53075  45.91285 114.02498  79.89455 112.90957
3         62.87914 113.21339          8.35698  -1.880000  79.89455 112.90957  45.91285 114.02498  45.86373 113.51655  79.84543 112.40114
3         62.83002 112.70363          8.38723  -1.880000  79.84543 112.40114  45.86373 113.51655  45.81461 113.00545  79.79631 111.89004
3         62.78090 112.19120          8.41747  -1.880000  79.79631 111.89004  45.81461 113.00545  45.76549 112.49169  79.74719 111.37627
3         62.73178 111.67610          8.44771  -1.880000  79.74719 111.37627  45.76549 112.49169  45.71637 111.97526  79.69807 110.85984
3         62.68266 111.15834          8.47795  -1.880000  79.69807 110.85984  45.71637 111.97526  45.66725 111.45616  79.64895 110.34075
3         62.63354 110.63791          8.50819  -1.880000  79.64895 110.34075  45.66725 111.45616  45.61813 110.93440  79.59983 109.81898
3         62.58442 110.11481          8.53844  -1.880000  79.59983 109.81898  45.61813 110.93440  45.56901 110.40997  79.55071 109.29455
3         62.53530 109.58905          8.56868  -1.880000  79.55071 109.29455  45.56901 110.40997  45.51989 109.88287  79.50159 108.76746
3         62.48618 109.06062          8.59892  -1.880000  79.50159 108.76746  45.51989 109.88287  45.47077 109.35311  79.45247 108.23770
3         62.43706 108.52952          8.62916  -1.880000  79.45247 108.23770  45.47077 109.35311  45.42165 108.82068  79.40335 107.70527
1         20.03115 127.87240          7.54045  -1.880000  36.15898 127.82692   3.93833 128.88453   3.90330 127.91784  36.12395 126.86023
1         19.99608 126.90563          7.60093  -1.880000  36.12395 126.86023   3.90330 127.91784   3.86819 126.95099  36.08884 125.89338
1         19.96094 125.93870          7.66142  -1.880000  36.08884 125.89338   3.86819 126.95099   3.83301 125.98397  36.05366 124.92636
1         19.92571 124.97160          7.72190  -1.880000  36.05366 124.92636   3.83301 125.98397   3.79775 125.01680  36.01840 123.95919
1         19.89042 124.00435          7.78238  -1.880000  36.01840 123.95919   3.79775 125.01680   3.76242 124.04946  35.98307 122.99185
1         19.85505 123.03693          7.84287  -1.880000  35.98307 122.99185   3.76242 124.04946   3.72701 123.08197  35.94766 122.02436
1         19.81960 122.06935          7.90335  -1.880000  35.94766 122.02436   3.72701 123.08197   3.69152 122.11431  35.91217 121.05670
1         19.78408 121.10162          7.96384  -1.880000  35.91217 121.05670   3.69152 122.11431   3.65596 121.14649  35.87661 120.08888
1         19.74848 120.13372          8.02432  -1.880000  35.87661 120.08888   3.65596 121.14649   3.62033 120.17851  35.84097 119.12090
1         19.71280 119.16566          8.08480  -1.880000  35.84097 119.12090   3.62033 120.17851   3.58461 119.21037  35.80526 118.15276
1         19.67705 118.19744          8.14529  -1.880000  35.80526 118.15276   3.58461 119.21037   3.54883 118.24207  35.76947 117.18446
1         19.64123 117.22906          8.20577  -1.880000  35.76947 117.18446   3.54883 118.24207   3.51296 117.27361  35.73361 116.21600
1         19.60533 116.26052          8.26625  -1.880000  35.73361 116.21600   3.51296 117.27361   3.47702 116.30499  35.69767 115.24738
1         19.56935 115.29181          8.32674  -1.880000  35.69767 115.24738   3.47702 116.30499   3.44101 115.33621  35.66166 114.27860
1         19.53330 114.32295          8.38722  -1.880000  35.66166 114.27860   3.44101 115.33621   3.40492 114.36726  35.62557 113.30965
1         19.49717 113.35393          8.44770  -1.880000  35.62557 113.30965   3.40492 114.36726   3.36875 113.39816  35.58940 112.34055
1         19.46097 112.38474          8.50819  -1.880000  35.58940 112.34055   3.36875 113.39816   3.33251 112.42889  35.55316 111.37128
1         19.42469 111.41540          8.56867  -1.880000  35.55316 111.37128   3.33251 112.42889   3.29619 111.45947  35.51684 110.40186
1         19.38833 110.44589          8.62915  -1.880000  35.51684 110.40186   3.29619 111.45947   3.25980 110.48988  35.48045 109.43227
1         19.35190 109.47622          8.68964  -1.880000  35.48045 109.43227   3.25980 110.48988   3.22333 109.52013  35.44398 108.46252
1         19.31540 108.50639          8.75012  -1.880000  35.44398 108.46252   3.22333 109.52013   3.18679 108.55022  35.40744 107.49261
1         19.27881 107.53640          8.81061  -1.880000  35.40744 107.49261   3.18679 108.55022   3.15017 107.58015  35.37082 106.52254
1         19.24216 106.56625          8.87109  -1.880000  35.37082 106.52254   3.15017 107.58015   3.11348 106.60992  35.33412 105.55231
1         19.20542 105.59594          8.93157  -1.880000  35.33412 105.55231   3.11348 106.60992   3.07671 105.63953  35.29735 104.58192
1         19.16862 104.62547          8.99206  -1.880000  35.29735 104.58192   3.07671 105.63953   3.03986 104.66898  35.26051 103.61137
1         19.13173 103.65484          9.05254  -1.880000  35.26051 103.61137   3.03986 104.66898   3.00294 103.69826  35.22358 102.64065
1         19.09477 102.68404          9.11302  -1.880000  35.22358 102.64065   3.00294 103.69826   2.96594 102.72739  35.18659 101.66978
1         19.05774 101.71309          9.17351  -1.880000  35.18659 101.66978   2.96594 102.72739   2.92887 101.75636  35.14951 100.69875
1         19.02063 100.74197          9.23399  -1.880000  35.14951 100.69875   2.92887 101.75636   2.89172 100.78516  35.11237  99.72755
1         18.98344  99.77070          9.29447  -1.880000  35.11237  99.72755   2.89172 100.78516   2.85449  99.81380  35.07514  98.75619
1         18.94618  98.79926          9.35496  -1.880000  35.07514  98.75619   2.85449  99.81380   2.81719  98.84229  35.03784  97.78468
1         18.90884  97.82766          9.41544  -1.880000  35.03784  97.78468   2.81719  98.84229   2.77982  97.87061  35.00047  96.81300
1         18.87143  96.85590          9.47593  -1.880000  35.00047  96.81300   2.77982  97.87061   2.74237  96.89877  34.96302  95.84116
1         18.83394  95.88398          9.53641  -1.880000  34.96302  95.84116   2.74237  96.89877   2.70484  95.92677  34.92549  94.86916
1         18.79637  94.91190          9.59689  -1.880000  34.92549  94.86916   2.70484  95.92677   2.66724  94.95461  34.88789  93.89700
1         18.75873  93.93966          9.65738  -1.880000  34.88789  93.89700   2.66724  94.95461   2.62956  93.98229  34.85021  92.92468
1         18.72102  92.96726          9.71786  -1.880000  34.85021  92.92468   2.62956  93.98229   2.59181  93.00980  34.81246  91.95219
1         18.68323  91.99470          9.77834  -1.880000  34.81246  91.95219   2.59181  93.00980   2.55398  92.03716  34.77463  90.97955
1         18.64536  91.02197          9.83883  -1.880000  34.77463  90.97955   2.55398  92.03716   2.51607  91.06435  34.73672  90.00675
1         18.60742  90.04909          9.89931  -1.880000  34.73672  90.00675   2.51607  91.06435   2.47809  90.09139  34.69874  89.03378
1         18.56940  89.07604          9.95979  -1.880000  34.69874  89.03378   2.47809  90.09139   2.44004  89.11826  34.66069  88.06065
1         18.53131  88.10284         10.02028  -1.880000  34.66069  88.06065   2.44004  89.11826   2.40191  88.14498  34.62255  87.08737
1         18.49314  87.12947         10.08076  -1.880000  34.62255  87.08737   2.40191  88.14498   2.36370  87.17153  34.58435  86.11392
1         18.45489  86.15594         10.14125  -1.880000  34.58435  86.11392   2.36370  87.17153   2.32542  86.19792  34.54606  85.14031
1         18.41657  85.18225         10.20173  -1.880000  34.54606  85.14031   2.32542  86.19792   2.28706  85.22415  34.50771  84.16654
1         18.37818  84.20840         10.26221  -1.880000  34.50771  84.16654   2.28706  85.22415   2.24863  84.25022  34.46927  83.19261
1         18.33970  83.23439         10.32270  -1.880000  34.46927  83.19261   2.24863  84.25022   2.21012  83.27613  34.43076  82.21852
1         18.30116  82.26022         10.38318  -1.880000  34.43076  82.21852   2.21012  83.27613   2.17153  82.30188  34.39218  81.24427
1         18.26253  81.28589         10.44366  -1.880000  34.39218  81.24427   2.17153  82.30188   2.13287  81.32747  34.35352  80.26986
1         18.22384  80.31139         10.50415  -1.880000  34.35352  80.26986   2.13287  81.32747   2.09413  80.35289  34.31478  79.29528
1         18.18506  79.33674         10.56463  -1.880000  34.31478  79.29528   2.09413  80.35289   2.05532  79.37816  34.27597  78.32055
1         18.14621  78.36193         10.62511  -1.880000  34.27597  78.32055   2.05532  79.37816   2.01643  78.40326  34.23708  77.34565
1         18.10729  77.38695         10.68560  -1.880000  34.23708  77.34565   2.01643  78.40326   1.97747  77.42821  34.19812  76.37060
1         18.06829  76.41181         10.74608  -1.880000  34.19812  76.37060   1.97747  77.42821   1.93843  76.45299  34.15908  75.39538
1         18.02921  75.43652         10.80657  -1.880000  34.15908  75.39538   1.93843  76.45299   1.89932  75.47761  34.11997  74.42000
1         17.99006  74.46106         10.86705  -1.880000  34.11997  74.42000   1.89932  75.47761   1.86013  74.50207  34.08078  73.44446
1         17.95083  73.48544         10.92753  -1.880000  34.08078  73.44446   1.86013  74.50207   1.82086  73.52637  34.04151  72.46876
1         17.91153  72.50966         10.98802  -1.880000  34.04151  72.46876   1.82086  73.52637   1.78152  72.55051  34.00217  71.49290
1         17.87215  71.53372         11.04850  -1.880000  34.00217  71.49290   1.78152  72.55051   1.74211  71.57449  33.96275  70.51688
1         17.83269  70.55762         11.10898  -1.880000  33.96275  70.51688   1.74211  71.57449   1.70261  70.59831  33.92326  69.54070
1         17.79316  69.58135         11.16947  -1.880000  33.92326  69.54070   1.70261  70.59831   1.66305  69.62197  33.88369  68.56436
1         17.75356  68.60493         11.22995  -1.880000  33.88369  68.56436   1.66305  69.62197   1.62340  68.64546  33.84405  67.58785
1         17.71388  67.62835         11.29043  -1.880000  33.84405  67.58785   1.62340  68.64546   1.58368  67.66880  33.80433  66.61119
1         17.67412  66.65160         11.35092  -1.880000  33.80433  66.61119   1.58368  67.66880   1.54389  66.69197  33.76454  65.63436
1         17.63429  65.67469         11.41140  -1.880000  33.76454  65.63436   1.54389  66.69197   1.50402  65.71499  33.72467  64.65738
1         17.59438  64.69763         11.47189  -1.880000  33.72467  64.65738   1.50402  65.71499   1.46407  64.73784  33.68472  63.68023
1         17.55439  63.72040         11.53237  -1.880000  33.68472  63.68023   1.46407  64.73784   1.42405  63.76053  33.64470  62.70292
1         17.51434  62.74301         11.59285  -1.880000  33.64470  62.70292   1.42405  63.76053   1.38395  62.78306  33.60460  61.72545
1         17.47420  61.76546         11.65334  -1.880000  33.60460  61.72545   1.38395  62.78306   1.34378  61.80543  33.56443  60.74782
1         17.43399  60.78775         11.71382  -1.880000  33.56443  60.74782   1.34378  61.80543   1.30353  60.82764  33.52418  59.77003
1         17.39370  59.80988         11.77430  -1.880000  33.52418  59.77003   1.30353  60.82764   1.26321  59.84969  33.48386  58.79208
1         17.35334  58.83185         11.83479  -1.880000  33.48386  58.79208   1.26321  59.84969   1.22281  58.87158  33.44346  57.81397
1         17.31290  57.85366         11.89527  -1.880000  33.44346  57.81397   1.22281  58.87158   1.18233  57.89330  33.40298  56.83569
1         17.27239  56.87530         11.95575  -1.880000  33.40298  56.83569   1.18233  57.89330   1.14178  56.91487  33.36243  55.85726
1         17.23180  55.89679         12.01624  -1.880000  33.36243  55.85726   1.14178  56.91487   1.10116  55.93628  33.32180  54.87867
1         17.19114  54.91811         12.07672  -1.880000  33.32180  54.87867   1.10116  55.93628   1.06045  54.95752  33.28110  53.89991
1         17.15040  53.93928         12.13721  -1.880000  33.28110  53.89991   1.06045  54.95752   1.01968  53.97860  33.24032  52.92099
1         17.10958  52.96028         12.19769  -1.880000  33.24032  52.92099   1.01968  53.97860   0.97882  52.99953  33.19947  51.94192
1         17.06869  51.98112         12.25817  -1.880000  33.19947  51.94192   0.97882  52.99953   0.93790  52.02029  33.15854  50.96268
1         17.02773  51.00180         12.31866  -1.880000  33.15854  50.96268   0.93790  52.02029   0.89689  51.04089  33.11754  49.98328
1         16.98668  50.02232         12.37914  -1.880000  33.11754  49.98328   0.89689  51.04089   0.85581  50.06133  33.07646  49.00372
1         16.94557  49.04268         12.43962  -1.880000  33.07646  49.00372   0.85581  50.06133   0.81466  49.08161  33.03530  48.02400
1         16.90437  48.06288         12.50011  -1.880000  33.03530  48.02400   0.81466  49.08161   0.77342  48.10173  32.99407  47.04412
1         16.86310  47.08292         12.56059  -1.880000  32.99407  47.04412   0.77342  48.10173   0.73212  47.12168  32.95277  46.06407
1         16.82176  46.10280         12.62107  -1.880000  32.95277  46.06407   0.73212  47.12168   0.69074  46.14148  32.91138  45.08387
1         16.78034  45.12251         12.68156  -1.880000  32.91138  45.08387   0.69074  46.14148   0.64928  45.16112  32.86992  44.10351
1         16.73884  44.14207         12.74204  -1.880000  32.86992  44.10351   0.64928  45.16112   0.60774  44.18059  32.82839  43.12298
1         16.69727  43.16146         12.80253  -1.880000  32.82839  43.12298   0.60774  44.18059   0.56613  43.19991  32.78678  42.14230
1         16.65563  42.18070         12.86301  -1.880000  32.78678  42.14230   0.56613  43.19991   0.52445  42.21906  32.74510  41.16145
1         16.61390  41.19977         12.92349  -1.880000  32.74510  41.16145   0.52445  42.21906   0.48269  41.23805  32.70334  40.18044
1         16.57210  40.21868         12.98398  -1.880000  32.70334  40.18044   0.48269  41.23805   0.44085  40.25688  32.66150  39.19927
1         16.53023  39.23743         13.04446  -1.880000  32.66150  39.19927   0.44085  40.25688   0.39894  39.27555  32.61959  38.21794
1         16.48828  38.25602         13.10494  -1.880000  32.61959  38.21794   0.39894  39.27555   0.35695  38.29406  32.57760  37.23645
1         16.44626  37.27445         13.16543  -1.880000  32.57760  37.23645   0.35695  38.29406   0.31489  37.31241  32.53554  36.25480
1         16.40416  36.29272         13.22591  -1.880000  32.53554  36.25480   0.31489  37.31241   0.27275  36.33060  32.49340  35.27299
1         16.36198  35.31083         13.28639  -1.880000  32.49340  35.27299   0.27275  36.33060   0.23054  35.34863  32.45119  34.29102
1         16.31973  34.32878         13.34688  -1.880000  32.45119  34.29102   0.23054  35.34863   0.18825  34.36649  32.40890  33.30889
1         16.27740  33.34656         13.40736  -1.880000  32.40890  33.30889   0.18825  34.36649   0.14588  33.38420  32.36653  32.32659
1         16.23500  32.36419         13.46785  -1.880000  32.36653  32.32659   0.14588  33.38420   0.10344  32.40175  32.32409  31.34414
1         16.19252  31.38165         13.52833  -1.880000  32.32409  31.34414   0.10344  32.40175   0.06093  31.41913  32.28157  30.36152
1         16.14996  30.39896         13.58881  -1.880000  32.28157  30.36152   0.06093  31.41913   0.01834  30.43635  32.23898  29.37874
1         16.10734  29.41610         13.64930  -1.880000  32.23898  29.37874   0.01834  30.43635  -0.02433  29.45341  32.19632  28.39580
1         16.06463  28.43308         13.70978  -1.880000  32.19632  28.39580  -0.02433  29.45341  -0.06708  28.47032  32.15357  27.41271
1         16.02185  27.44990         13.77026  -1.880000  32.15357  27.41271  -0.06708  28.47032  -0.10989  27.48706  32.11075  26.42945
1         15.97899  26.46656         13.83075  -1.880000  32.11075  26.42945  -0.10989  27.48706  -0.15279  26.50364  32.06786  25.44603
1         15.93606  25.48306         13.89123  -1.880000  32.06786  25.44603  -0.15279  26.50364  -0.19576  25.52006  32.02489  24.46245
1         15.89305  24.49940         13.95171  -1.880000  32.02489  24.46245  -0.19576  25.52006  -0.23880  24.53631  31.98184  23.47870
1         15.84997  23.51558         14.01220  -1.880000  31.98184  23.47870  -0.23880  24.53631  -0.28193  23.55241  31.93872  22.49480
1         15.80681  22.53159         14.07268  -1.880000  31.93872  22.49480  -0.28193  23.55241  -0.32512  22.56835  31.89553  21.51074
1         15.76357  21.54745         14.13317  -1.880000  31.89553  21.51074  -0.32512  22.56835  -0.36839  21.58412  31.85225  20.52651
1         15.72026  20.56314         14.19365  -1.880000  31.85225  20.52651  -0.36839  21.58412  -0.41174  20.59974  31.80890  19.54213
1         15.67688  19.57868         14.25413  -1.880000  31.80890  19.54213  -0.41174  20.59974  -0.45517  19.61519  31.76548  18.55758
1         15.63342  18.59405         14.31462  -1.880000  31.76548  18.55758  -0.45517  19.61519  -0.49867  18.63048  31.72198  17.57287
1         15.58988  17.60926         14.37510  -1.880000  31.72198  17.57287  -0.49867  18.63048  -0.54224  17.64562  31.67841  16.58801
1         15.54627  16.62432         14.43558  -1.880000  31.67841  16.58801  -0.54224  17.64562  -0.58589  16.66059  31.63476  15.60298
1         15.50258  15.63921         14.49607  -1.880000  31.63476  15.60298  -0.58589  16.66059  -0.62962  15.67540  31.59103  14.61779
1         15.45882  14.65394         14.55655  -1.880000  31.59103  14.61779  -0.62962  15.67540  -0.67342  14.69005  31.54723  13.63244
1         15.41498  13.66851         14.61703  -1.880000  31.54723  13.63244  -0.67342  14.69005  -0.71730  13.70454  31.50335  12.64693
1         15.37106  12.68291         14.67752  -1.880000  31.50335  12.64693  -0.71730  13.70454  -0.76125  12.71886  31.45940  11.66125
1         15.32707  11.69716         14.73800  -1.880000  31.45940  11.66125  -0.76125  12.71886  -0.80528  11.73303  31.41537  10.67542
1         15.28300  10.71125         14.79849  -1.880000  31.41537  10.67542  -0.80528  11.73303  -0.84938  10.74704  31.37127   9.68943
1         15.23886   9.72517         14.85897  -1.880000  31.37127   9.68943  -0.84938  10.74704  -0.89356   9.76088  31.32709   8.70327
1         15.19464   8.73894         14.91945  -1.880000  31.32709   8.70327  -0.89356   9.76088  -0.93782   8.77457  31.28283   7.71696
1         15.15035   7.75254         14.97994  -1.880000  31.28283   7.71696  -0.93782   8.77457  -0.98215   7.78809  31.23850   6.73048
1         15.10598   6.76599         15.04042  -1.880000  31.23850   6.73048  -0.98215   7.78809  -1.02655   6.80145  31.19409   5.74384
1         15.06154   5.77927         15.10090  -1.880000  31.19409   5.74384  -1.02655   6.80145  -1.07104   5.81465  31.14961   4.75704
1         15.01702   4.79239         15.16139  -1.880000  31.14961   4.75704  -1.07104   5.81465  -1.11559   4.82770  31.10505   3.77009
1         14.97242   3.80535         15.22187  -1.880000  31.10505   3.77009  -1.11559   4.82770  -1.16023   3.84058  31.06042   2.78297
1         14.92775   2.81815         15.28235  -1.880000  31.06042   2.78297  -1.16023   3.84058  -1.20494   2.85329  31.01571   1.79569
1         14.88301   1.83079         15.34284  -1.880000  31.01571   1.79569  -1.20494   2.85329  -1.24972   1.86585  30.97093   0.80824
