\wavsamp version 5.1 (Wed Apr 20 08:45:04 PDT 2005)
\processing time 18:54:11 PST 11/05/2008
\character channelID = 3
| order |x_center |y_center |   wavelength   |  angle   |   x0    |   y0    |   x1    |   y1    |   x2    |   y2    |   x3    |   y3    |
| int   |  real   |  real   |    real        |   real   |  real   |  real   |  real   |  real   |  real   |  real   |  real   |  real   |
      20   7.32125   0.42655         18.75110  -1.896856   9.65568  -0.12640   4.99158   0.02833   4.98673   0.97952   9.65085   0.82531
      20   7.31624   1.37895         18.76673  -1.890428   9.65085   0.82531   4.98673   0.97952   4.98153   1.93261   9.64567   1.77893
      20   7.31088   2.33326         18.78238  -1.884001   9.64567   1.77893   4.98153   1.93261   4.97600   2.88761   9.64015   2.73445
      20   7.30518   3.28948         18.79804  -1.877575   9.64015   2.73445   4.97600   2.88761   4.97012   3.84452   9.63429   3.69188
      20   7.29914   4.24760         18.81371  -1.871150   9.63429   3.69188   4.97012   3.84452   4.96389   4.80334   9.62808   4.65123
      20   7.29275   5.20764         18.82939  -1.864727   9.62808   4.65123   4.96389   4.80334   4.95732   5.76408   9.62153   5.61249
      20   7.28601   6.16960         18.84509  -1.858305   9.62153   5.61249   4.95732   5.76408   4.95041   6.72674   9.61463   6.57567
      20   7.27893   7.13348         18.86080  -1.851885   9.61463   6.57567   4.95041   6.72674   4.94314   7.69132   9.60738   7.54077
      20   7.27150   8.09929         18.87652  -1.845465   9.60738   7.54077   4.94314   7.69132   4.93553   8.65783   9.59978   8.50780
      20   7.26372   9.06702         18.89226  -1.839048   9.59978   8.50780   4.93553   8.65783   4.92756   9.62626   9.59184   9.47676
      20   7.25559  10.03669         18.90801  -1.832631   9.59184   9.47676   4.92756   9.62626   4.91925  10.59663   9.58354  10.44766
      20   7.24711  11.00829         18.92378  -1.826217   9.58354  10.44766   4.91925  10.59663   4.91059  11.56894   9.57489  11.42049
      20   7.23828  11.98183         18.93955  -1.819804   9.57489  11.42049   4.91059  11.56894   4.90157  12.54319   9.56589  12.39526
      20   7.22910  12.95731         18.95534  -1.813393   9.56589  12.39526   4.90157  12.54319   4.89220  13.51939   9.55654  13.37197
      20   7.21956  13.93474         18.97114  -1.806984   9.55654  13.37197   4.89220  13.51939   4.88248  14.49753   9.54684  14.35064
      20   7.20967  14.91412         18.98696  -1.800576   9.54684  14.35064   4.88248  14.49753   4.87240  15.47762   9.53678  15.33125
      20   7.19942  15.89545         19.00279  -1.794171   9.53678  15.33125   4.87240  15.47762   4.86197  16.45967   9.52636  16.31382
      20   7.18882  16.87873         19.01863  -1.787768   9.52636  16.31382   4.86197  16.45967   4.85119  17.44367   9.51559  17.29834
      20   7.17786  17.86398         19.03449  -1.781366   9.51559  17.29834   4.85119  17.44367   4.84004  18.42964   9.50446  18.28483
      20   7.16655  18.85119         19.05036  -1.774967   9.50446  18.28483   4.84004  18.42964   4.82854  19.41757   9.49297  19.27328
      20   7.15487  19.84036         19.06624  -1.768570   9.49297  19.27328   4.82854  19.41757   4.81668  20.40747   9.48113  20.26371
      20   7.14284  20.83151         19.08213  -1.762175   9.48113  20.26371   4.81668  20.40747   4.80445  21.39934   9.46892  21.25610
      20   7.13044  21.82463         19.09804  -1.755783   9.46892  21.25610   4.80445  21.39934   4.79187  22.39319   9.45636  22.25047
      20   7.11769  22.81973         19.11396  -1.749393   9.45636  22.25047   4.79187  22.39319   4.77893  23.38902   9.44343  23.24682
      20   7.10457  23.81681         19.12990  -1.743005   9.44343  23.24682   4.77893  23.38902   4.76562  24.38684   9.43014  24.24515
      20   7.09109  24.81588         19.14585  -1.736620   9.43014  24.24515   4.76562  24.38684   4.75195  25.38663   9.41648  25.24547
      20   7.07725  25.81693         19.16181  -1.730238   9.41648  25.24547   4.75195  25.38663   4.73792  26.38842   9.40247  26.24778
      20   7.06304  26.81998         19.17778  -1.723858   9.40247  26.24778   4.73792  26.38842   4.72352  27.39221   9.38808  27.25208
      20   7.04847  27.82502         19.19377  -1.717481   9.38808  27.25208   4.72352  27.39221   4.70876  28.39799   9.37334  28.25838
      20   7.03353  28.83206         19.20977  -1.711107   9.37334  28.25838   4.70876  28.39799   4.69363  29.40577   9.35822  29.26668
      20   7.01822  29.84110         19.22579  -1.704736   9.35822  29.26668   4.69363  29.40577   4.67813  30.41555   9.34274  30.27699
      20   7.00255  30.85215         19.24181  -1.698367   9.34274  30.27699   4.67813  30.41555   4.66226  31.42735   9.32688  31.28930
      20   6.98650  31.86521         19.25786  -1.692002   9.32688  31.28930   4.66226  31.42735   4.64602  32.44116   9.31066  32.30362
      20   6.97009  32.88028         19.27391  -1.685640   9.31066  32.30362   4.64602  32.44116   4.62942  33.45698   9.29407  33.31996
      20   6.95330  33.89737         19.28998  -1.679281   9.29407  33.31996   4.62942  33.45698   4.61244  34.47482   9.27711  34.33832
      20   6.93614  34.91648         19.30606  -1.672925   9.27711  34.33832   4.61244  34.47482   4.59509  35.49468   9.25977  35.35870
      20   6.91861  35.93762         19.32216  -1.666573   9.25977  35.35870   4.59509  35.49468   4.57736  36.51657   9.24206  36.38111
      20   6.90071  36.96078         19.33826  -1.660224   9.24206  36.38111   4.57736  36.51657   4.55926  37.54049   9.22398  37.40555
      20   6.88243  37.98598         19.35439  -1.653878   9.22398  37.40555   4.55926  37.54049   4.54079  38.56645   9.20552  38.43202
      20   6.86378  39.01321         19.37052  -1.647536   9.20552  38.43202   4.54079  38.56645   4.52194  39.59444   9.18669  39.46053
      20   6.84475  40.04248         19.38667  -1.641197   9.18669  39.46053   4.52194  39.59444   4.50272  40.62447   9.16748  40.49108
      20   6.82534  41.07379         19.40283  -1.634863   9.16748  40.49108   4.50272  40.62447   4.48311  41.65655   9.14789  41.52367
      20   6.80556  42.10715         19.41901  -1.628531   9.14789  41.52367   4.48311  41.65655   4.46313  42.69068   9.12792  42.55831
      20   6.78539  43.14256         19.43520  -1.622204   9.12792  42.55831   4.46313  42.69068   4.44277  43.72686   9.10757  43.59500
      20   6.76485  44.18003         19.45140  -1.615881   9.10757  43.59500   4.44277  43.72686   4.42203  44.76509   9.08684  44.63375
      20   6.74392  45.21955         19.46762  -1.609562   9.08684  44.63375   4.42203  44.76509   4.40090  45.80538   9.06573  45.67456
      20   6.72261  46.26113         19.48385  -1.603246   9.06573  45.67456   4.40090  45.80538   4.37940  46.84774   9.04424  46.71743
      20   6.70092  47.30478         19.50009  -1.596935   9.04424  46.71743   4.37940  46.84774   4.35751  47.89217   9.02237  47.76237
      20   6.67885  48.35049         19.51635  -1.590628   9.02237  47.76237   4.35751  47.89217   4.33523  48.93866   9.00011  48.80938
      20   6.65639  49.39828         19.53262  -1.584325   9.00011  48.80938   4.33523  48.93866   4.31257  49.98723   8.97746  49.85846
      20   6.63355  50.44815         19.54890  -1.578027   8.97746  49.85846   4.31257  49.98723   4.28953  51.03788   8.95443  50.90962
      20   6.61032  51.50009         19.56520  -1.571733   8.95443  50.90962   4.28953  51.03788   4.26610  52.09061   8.93102  51.96286
      20   6.58670  52.55412         19.58151  -1.565444   8.93102  51.96286   4.26610  52.09061   4.24228  53.14542   8.90721  53.01819
      20   6.56269  53.61024         19.59783  -1.559159   8.90721  53.01819   4.24228  53.14542   4.21807  54.20233   8.88302  54.07561
      20   6.53829  54.66844         19.61417  -1.552879   8.88302  54.07561   4.21807  54.20233   4.19347  55.26133   8.85843  55.13512
      20   6.51351  55.72875         19.63053  -1.546603   8.85843  55.13512   4.19347  55.26133   4.16848  56.32242   8.83346  56.19672
      20   6.48833  56.79115         19.64689  -1.540333   8.83346  56.19672   4.16848  56.32242   4.14310  57.38562   8.80809  57.26043
      20   6.46276  57.85565         19.66327  -1.534067   8.80809  57.26043   4.14310  57.38562   4.11733  58.45092   8.78233  58.32624
      20   6.43680  58.92226         19.67966  -1.527806   8.78233  58.32624   4.11733  58.45092   4.09116  59.51833   8.75618  59.39416
      20   6.41044  59.99098         19.69607  -1.521551   8.75618  59.39416   4.09116  59.51833   4.06460  60.58785   8.72963  60.46419
      20   6.38369  61.06181         19.71249  -1.515300   8.72963  60.46419   4.06460  60.58785   4.03765  61.65948   8.70269  61.53633
      20   6.35654  62.13476         19.72892  -1.509055   8.70269  61.53633   4.03765  61.65948   4.01029  62.73324   8.67535  62.61060
      20   6.32900  63.20983         19.74537  -1.502815   8.67535  62.61060   4.01029  62.73324   3.98254  63.80912   8.64761  63.68699
      20   6.30105  64.28703         19.76183  -1.496581   8.64761  63.68699   3.98254  63.80912   3.95439  64.88713   8.61948  64.76550
      20   6.27271  65.36636         19.77831  -1.490352   8.61948  64.76550   3.95439  64.88713   3.92585  65.96727   8.59094  65.84615
      20   6.24397  66.44782         19.79480  -1.484129   8.59094  65.84615   3.92585  65.96727   3.89690  67.04954   8.56201  66.92893
      20   6.21483  67.53141         19.81130  -1.477911   8.56201  66.92893   3.89690  67.04954   3.86755  68.13395   8.53267  68.01385
      20   6.18528  68.61715         19.82782  -1.471699   8.53267  68.01385   3.86755  68.13395   3.83780  69.22051   8.50293  69.10091
      20   6.15534  69.70503         19.84435  -1.465492   8.50293  69.10091   3.83780  69.22051   3.80764  70.30921   8.47279  70.19011
      20   6.12499  70.79506         19.86089  -1.459292   8.47279  70.19011   3.80764  70.30921   3.77708  71.40006   8.44224  71.28147
      20   6.09423  71.88724         19.87745  -1.453098   8.44224  71.28147   3.77708  71.40006   3.74612  72.49307   8.41129  72.37498
      20   6.06307  72.98158         19.89402  -1.446910   8.41129  72.37498   3.74612  72.49307   3.71475  73.58823   8.37993  73.47065
      20   6.03150  74.07807         19.91060  -1.440728   8.37993  73.47065   3.71475  73.58823   3.68297  74.68556   8.34817  74.56848
      20   5.99953  75.17674         19.92720  -1.434552   8.34817  74.56848   3.68297  74.68556   3.65079  75.78505   8.31600  75.66848
      20   5.96715  76.27756         19.94382  -1.428382   8.31600  75.66848   3.65079  75.78505   3.61819  76.88672   8.28342  76.77064
      20   5.93435  77.38057         19.96044  -1.422219   8.28342  76.77064   3.61819  76.88672   3.58519  77.99055   8.25042  77.87498
      20   5.90115  78.48574         19.97708  -1.416063   8.25042  77.87498   3.58519  77.99055   3.55177  79.09657   8.21702  78.98149
      20   5.86754  79.59310         19.99374  -1.409913   8.21702  78.98149   3.55177  79.09657   3.51795  80.20476   8.18321  80.09019
      20   5.83351  80.70263         20.01041  -1.403769   8.18321  80.09019   3.51795  80.20476   3.48371  81.31514   8.14898  81.20107
      20   5.79907  81.81436         20.02709  -1.397633   8.14898  81.20107   3.48371  81.31514   3.44905  82.42772   8.11434  82.31414
      20   5.76421  82.92828         20.04378  -1.391503   8.11434  82.31414   3.44905  82.42772   3.41399  83.54248   8.07928  83.42940
      20   5.72894  84.04439         20.06049  -1.385381   8.07928  83.42940   3.41399  83.54248   3.37850  84.65944   8.04381  84.54686
      20   5.69326  85.16270         20.07722  -1.379265   8.04381  84.54686   3.37850  84.65944   3.34260  85.77860   8.00792  85.66652
      20   5.65715  86.28321         20.09396  -1.373156   8.00792  85.66652   3.34260  85.77860   3.30628  86.89997   7.97161  86.78839
      20   5.62063  87.40593         20.11071  -1.367055   7.97161  86.78839   3.30628  86.89997   3.26954  88.02355   7.93489  87.91246
      20   5.58369  88.53087         20.12747  -1.360961   7.93489  87.91246   3.26954  88.02355   3.23239  89.14934   7.89774  89.03875
      20   5.54633  89.65801         20.14425  -1.354875   7.89774  89.03875   3.23239  89.14934   3.19481  90.27735   7.86018  90.16725
      20   5.50854  90.78738         20.16105  -1.348796   7.86018  90.16725   3.19481  90.27735   3.15681  91.40757   7.82219  91.29797
      20   5.47034  91.91896         20.17786  -1.342725   7.82219  91.29797   3.15681  91.40757   3.11838  92.54003   7.78378  92.43092
      20   5.43171  93.05278         20.19468  -1.336661   7.78378  92.43092   3.11838  92.54003   3.07954  93.67471   7.74494  93.56610
      20   5.39265  94.18883         20.21151  -1.330605   7.74494  93.56610   3.07954  93.67471   3.04027  94.81163   7.70568  94.70351
      20   5.35318  95.32711         20.22836  -1.324557   7.70568  94.70351   3.04027  94.81163   3.00057  95.95078   7.66599  95.84315
      20   5.31327  96.46762         20.24523  -1.318517   7.66599  95.84315   3.00057  95.95078   2.96044  97.09217   7.62588  96.98504
      20   5.27294  97.61039         20.26211  -1.312485   7.62588  96.98504   2.96044  97.09217   2.91989  98.23581   7.58534  98.12917
      20   5.23218  98.75540         20.27900  -1.306461   7.58534  98.12917   2.91989  98.23581   2.87891  99.38170   7.54437  99.27555
      20   5.19099  99.90266         20.29590  -1.300446   7.54437  99.27555   2.87891  99.38170   2.83750 100.52984   7.50297 100.42418
      20   5.14936 101.05217         20.31282  -1.294439   7.50297 100.42418   2.83750 100.52984   2.79566 101.68024   7.46114 101.57507
      20   5.10731 102.20394         20.32976  -1.288440   7.46114 101.57507   2.79566 101.68024   2.75338 102.83290   7.41887 102.72821
      20   5.06483 103.35798         20.34671  -1.282450   7.41887 102.72821   2.75338 102.83290   2.71068 103.98783   7.37618 103.88363
      20   5.02191 104.51428         20.36367  -1.276469   7.37618 103.88363   2.71068 103.98783   2.66753 105.14502   7.33305 105.04131
      20   4.97856 105.67286         20.38065  -1.270496   7.33305 105.04131   2.66753 105.14502   2.62396 106.30449   7.28948 106.20126
      20   4.93477 106.83371         20.39764  -1.264533   7.28948 106.20126   2.62396 106.30449   2.57995 107.46624   7.24548 107.36350
      20   4.89054 107.99684         20.41464  -1.258578   7.24548 107.36350   2.57995 107.46624   2.53550 108.63027   7.20104 108.52801
      20   4.84588 109.16225         20.43166  -1.252632   7.20104 108.52801   2.53550 108.63027   2.49061 109.79658   7.15617 109.69481
      20   4.80078 110.32995         20.44870  -1.246696   7.15617 109.69481   2.49061 109.79658   2.44528 110.96518   7.11085 110.86389
      20   4.75524 111.49994         20.46574  -1.240768   7.11085 110.86389   2.44528 110.96518   2.39952 112.13608   7.06509 112.03527
      20   4.70925 112.67223         20.48281  -1.234851   7.06509 112.03527   2.39952 112.13608   2.35331 113.30928   7.01890 113.20895
      20   4.66283 113.84682         20.49988  -1.228942   7.01890 113.20895   2.35331 113.30928   2.30666 114.48478   6.97226 114.38493
      20   4.61596 115.02371         20.51697  -1.223043   6.97226 114.38493   2.30666 114.48478   2.25956 115.66258   6.92517 115.56321
      20   4.56865 116.20291         20.53408  -1.217154   6.92517 115.56321   2.25956 115.66258   2.21203 116.84270   6.87764 116.74381
      20   4.52090 117.38442         20.55119  -1.211275   6.87764 116.74381   2.21203 116.84270   2.16404 118.02513   6.82967 117.92672
      20   4.47270 118.56825         20.56833  -1.205405   6.82967 117.92672   2.16404 118.02513   2.11561 119.20987   6.78125 119.11194
      20   4.42405 119.75440         20.58548  -1.199546   6.78125 119.11194   2.11561 119.20987   2.06674 120.39695   6.73238 120.29949
      20   4.37495 120.94287         20.60264  -1.193697   6.73238 120.29949   2.06674 120.39695   2.01741 121.58634   6.68307 121.48936
      20   4.32540 122.13367         20.61981  -1.187857   6.68307 121.48936   2.01741 121.58634   1.96763 122.77807   6.63330 122.68157
      20   4.27541 123.32681         20.63700  -1.182029   6.63330 122.68157   1.96763 122.77807   1.91741 123.97214   6.58309 123.87611
      20   4.22496 124.52228         20.65421  -1.176210   6.58309 123.87611   1.91741 123.97214   1.86673 125.16855   6.53242 125.07299
      20   4.17406 125.72009         20.67143  -1.170402   6.53242 125.07299   1.86673 125.16855   1.81560 126.36729   6.48130 126.27221
      20   4.12271 126.92025         20.68866  -1.164605   6.48130 126.27221   1.81560 126.36729   1.76402 127.56839   6.42972 127.47378
      20   4.07090 128.12276         20.70591  -1.158819   6.42972 127.47378   1.76402 127.56839   1.71198 128.77184   6.37769 128.67770
      20   4.01864 129.32762         20.72317  -1.153043   6.37769 128.67770   1.71198 128.77184   1.65948 129.97765   6.32521 129.88397
      19  14.38572   2.03146         19.76183  -1.270589  16.71869   1.50185  12.05318   1.60562  12.05266   2.56107  16.71819   2.45788
      19  14.38505   2.98816         19.77831  -1.263489  16.71819   2.45788  12.05266   2.56107  12.05183   3.51843  16.71737   3.41582
      19  14.38407   3.94676         19.79480  -1.256388  16.71737   3.41582  12.05183   3.51843  12.05069   4.47770  16.71624   4.37566
      19  14.38278   4.90728         19.81130  -1.249286  16.71624   4.37566  12.05069   4.47770  12.04923   5.43888  16.71479   5.33743
      19  14.38117   5.86971         19.82782  -1.242184  16.71479   5.33743  12.04923   5.43888  12.04745   6.40199  16.71303   6.30111
      19  14.37924   6.83407         19.84435  -1.235082  16.71303   6.30111  12.04745   6.40199  12.04536   7.36702  16.71095   7.26672
      19  14.37699   7.80035         19.86089  -1.227980  16.71095   7.26672  12.04536   7.36702  12.04295   8.33397  16.70855   8.23425
      19  14.37443   8.76855         19.87745  -1.220877  16.70855   8.23425  12.04295   8.33397  12.04022   9.30285  16.70583   9.20371
      19  14.37154   9.73869         19.89402  -1.213774  16.70583   9.20371  12.04022   9.30285  12.03717  10.27366  16.70279  10.17510
      19  14.36834  10.71076         19.91060  -1.206671  16.70279  10.17510  12.03717  10.27366  12.03380  11.24641  16.69944  11.14843
      19  14.36481  11.68477         19.92720  -1.199568  16.69944  11.14843  12.03380  11.24641  12.03011  12.22110  16.69576  12.12369
      19  14.36097  12.66072         19.94382  -1.192464  16.69576  12.12369  12.03011  12.22110  12.02609  13.19773  16.69175  13.10091
      19  14.35680  13.63861         19.96044  -1.185361  16.69175  13.10091  12.02609  13.19773  12.02175  14.17631  16.68743  14.08006
      19  14.35230  14.61845         19.97708  -1.178258  16.68743  14.08006  12.02175  14.17631  12.01709  15.15684  16.68278  15.06117
      19  14.34749  15.60025         19.99374  -1.171155  16.68278  15.06117  12.01709  15.15684  12.01211  16.13932  16.67781  16.04423
      19  14.34234  16.58400         20.01041  -1.164052  16.67781  16.04423  12.01211  16.13932  12.00680  17.12376  16.67251  17.02925
      19  14.33688  17.56971         20.02709  -1.156950  16.67251  17.02925  12.00680  17.12376  12.00116  18.11016  16.66688  18.01623
      19  14.33108  18.55738         20.04378  -1.149847  16.66688  18.01623  12.00116  18.11016  11.99520  19.09853  16.66093  19.00517
      19  14.32496  19.54701         20.06049  -1.142745  16.66093  19.00517  11.99520  19.09853  11.98891  20.08886  16.65465  19.99608
      19  14.31851  20.53862         20.07722  -1.135644  16.65465  19.99608  11.98891  20.08886  11.98229  21.08116  16.64804  20.98896
      19  14.31173  21.53220         20.09396  -1.128543  16.64804  20.98896  11.98229  21.08116  11.97534  22.07544  16.64110  21.98381
      19  14.30462  22.52775         20.11071  -1.121443  16.64110  21.98381  11.97534  22.07544  11.96806  23.07169  16.63383  22.98065
      19  14.29718  23.52529         20.12747  -1.114343  16.63383  22.98065  11.96806  23.07169  11.96044  24.06993  16.62623  23.97946
      19  14.28941  24.52481         20.14425  -1.107244  16.62623  23.97946  11.96044  24.06993  11.95250  25.07015  16.61830  24.98026
      19  14.28131  25.52632         20.16105  -1.100146  16.61830  24.98026  11.95250  25.07015  11.94423  26.07237  16.61004  25.98305
      19  14.27287  26.52981         20.17786  -1.093049  16.61004  25.98305  11.94423  26.07237  11.93562  27.07657  16.60144  26.98784
      19  14.26410  27.53530         20.19468  -1.085952  16.60144  26.98784  11.93562  27.07657  11.92667  28.08277  16.59251  27.99462
      19  14.25500  28.54279         20.21151  -1.078857  16.59251  27.99462  11.92667  28.08277  11.91740  29.09097  16.58324  29.00339
      19  14.24556  29.55228         20.22836  -1.071762  16.58324  29.00339  11.91740  29.09097  11.90778  30.10118  16.57364  30.01418
      19  14.23578  30.56378         20.24523  -1.064669  16.57364  30.01418  11.90778  30.10118  11.89783  31.11339  16.56370  31.02697
      19  14.22566  31.57729         20.26211  -1.057576  16.56370  31.02697  11.89783  31.11339  11.88754  32.12761  16.55342  32.04177
      19  14.21521  32.59280         20.27900  -1.050485  16.55342  32.04177  11.88754  32.12761  11.87692  33.14385  16.54280  33.05858
      19  14.20442  33.61034         20.29590  -1.043396  16.54280  33.05858  11.87692  33.14385  11.86595  34.16210  16.53185  34.07741
      19  14.19329  34.62989         20.31282  -1.036307  16.53185  34.07741  11.86595  34.16210  11.85464  35.18238  16.52055  35.09826
      19  14.18182  35.65147         20.32976  -1.029220  16.52055  35.09826  11.85464  35.18238  11.84300  36.20468  16.50891  36.12114
      19  14.17000  36.67507         20.34671  -1.022134  16.50891  36.12114  11.84300  36.20468  11.83101  37.22901  16.49694  37.14605
      19  14.15785  37.70071         20.36367  -1.015050  16.49694  37.14605  11.83101  37.22901  11.81867  38.25537  16.48461  38.17299
      19  14.14535  38.72837         20.38065  -1.007968  16.48461  38.17299  11.81867  38.25537  11.80600  39.28377  16.47195  39.20196
      19  14.13251  39.75808         20.39764  -1.000887  16.47195  39.20196  11.80600  39.28377  11.79298  40.31421  16.45894  40.23298
      19  14.11932  40.78983         20.41464  -0.993808  16.45894  40.23298  11.79298  40.31421  11.77962  41.34669  16.44558  41.26604
      19  14.10579  41.82362         20.43166  -0.986731  16.44558  41.26604  11.77962  41.34669  11.76590  42.38122  16.43188  42.30114
      19  14.09191  42.85946         20.44870  -0.979656  16.43188  42.30114  11.76590  42.38122  11.75185  43.41780  16.41784  43.33830
      19  14.07768  43.89736         20.46574  -0.972582  16.41784  43.33830  11.75185  43.41780  11.73744  44.45643  16.40344  44.37751
      19  14.06311  44.93731         20.48281  -0.965511  16.40344  44.37751  11.73744  44.45643  11.72269  45.49712  16.38870  45.41878
      19  14.04819  45.97932         20.49988  -0.958442  16.38870  45.41878  11.72269  45.49712  11.70758  46.53988  16.37360  46.46211
      19  14.03291  47.02340         20.51697  -0.951375  16.37360  46.46211  11.70758  46.53988  11.69213  47.58470  16.35816  47.50750
      19  14.01729  48.06954         20.53408  -0.944310  16.35816  47.50750  11.69213  47.58470  11.67633  48.63159  16.34236  48.55497
      19  14.00131  49.11775         20.55119  -0.937247  16.34236  48.55497  11.67633  48.63159  11.66017  49.68055  16.32622  49.60451
      19  13.98498  50.16804         20.56833  -0.930187  16.32622  49.60451  11.66017  49.68055  11.64366  50.73159  16.30972  50.65612
      19  13.96830  51.22041         20.58548  -0.923130  16.30972  50.65612  11.64366  50.73159  11.62680  51.78471  16.29286  51.70982
      19  13.95127  52.27486         20.60264  -0.916074  16.29286  51.70982  11.62680  51.78471  11.60958  52.83992  16.27565  52.76560
      19  13.93388  53.33140         20.61981  -0.909022  16.27565  52.76560  11.60958  52.83992  11.59201  53.89721  16.25809  53.82346
      19  13.91613  54.39002         20.63700  -0.901972  16.25809  53.82346  11.59201  53.89721  11.57408  54.95660  16.24017  54.88342
      19  13.89803  55.45074         20.65421  -0.894925  16.24017  54.88342  11.57408  54.95660  11.55579  56.01808  16.22189  55.94548
      19  13.87957  56.51356         20.67143  -0.887880  16.22189  55.94548  11.55579  56.01808  11.53715  57.08166  16.20326  57.00963
      19  13.86075  57.57848         20.68866  -0.880839  16.20326  57.00963  11.53715  57.08166  11.51814  58.14734  16.18426  58.07589
      19  13.84157  58.64550         20.70591  -0.873801  16.18426  58.07589  11.51814  58.14734  11.49878  59.21513  16.16491  59.14425
      19  13.82203  59.71463         20.72317  -0.866765  16.16491  59.14425  11.49878  59.21513  11.47906  60.28503  16.14519  60.21472
      19  13.80213  60.78588         20.74045  -0.859733  16.14519  60.21472  11.47906  60.28503  11.45897  61.35705  16.12512  61.28731
      19  13.78187  61.85924         20.75774  -0.852704  16.12512  61.28731  11.45897  61.35705  11.43852  62.43118  16.10468  62.36202
      19  13.76124  62.93472         20.77504  -0.845678  16.10468  62.36202  11.43852  62.43118  11.41771  63.50744  16.08388  63.43885
      19  13.74025  64.01232         20.79236  -0.838655  16.08388  63.43885  11.41771  63.50744  11.39654  64.58582  16.06271  64.51780
      19  13.71890  65.09205         20.80970  -0.831636  16.06271  64.51780  11.39654  64.58582  11.37500  65.66633  16.04118  65.59888
      19  13.69718  66.17392         20.82705  -0.824621  16.04118  65.59888  11.37500  65.66633  11.35309  66.74898  16.01928  66.68210
      19  13.67510  67.25792         20.84441  -0.817609  16.01928  66.68210  11.35309  66.74898  11.33082  67.83376  15.99702  67.76745
      19  13.65264  68.34406         20.86179  -0.810600  15.99702  67.76745  11.33082  67.83376  11.30818  68.92068  15.97438  68.85495
      19  13.62982  69.43234         20.87918  -0.803596  15.97438  68.85495  11.30818  68.92068  11.28517  70.00975  15.95138  69.94459
      19  13.60663  70.52277         20.89659  -0.796595  15.95138  69.94459  11.28517  70.00975  11.26179  71.10097  15.92801  71.03638
      19  13.58307  71.61535         20.91401  -0.789598  15.92801  71.03638  11.26179  71.10097  11.23804  72.19434  15.90427  72.13032
      19  13.55914  72.71008         20.93144  -0.782605  15.90427  72.13032  11.23804  72.19434  11.21392  73.28987  15.88016  73.22642
      19  13.53484  73.80697         20.94889  -0.775616  15.88016  73.22642  11.21392  73.28987  11.18943  74.38756  15.85568  74.32467
      19  13.51017  74.90603         20.96636  -0.768631  15.85568  74.32467  11.18943  74.38756  11.16457  75.48741  15.83082  75.42510
      19  13.48512  76.00725         20.98384  -0.761651  15.83082  75.42510  11.16457  75.48741  11.13933  76.58944  15.80559  76.52769
      19  13.45970  77.11064         21.00133  -0.754674  15.80559  76.52769  11.13933  76.58944  11.11371  77.69363  15.77998  77.63245
      19  13.43390  78.21621         21.01884  -0.747703  15.77998  77.63245  11.11371  77.69363  11.08772  78.80000  15.75400  78.73939
      19  13.40772  79.32395         21.03636  -0.740735  15.75400  78.73939  11.08772  78.80000  11.06136  79.90855  15.72764  79.84850
      19  13.38117  80.43388         21.05390  -0.733772  15.72764  79.84850  11.06136  79.90855  11.03461  81.01929  15.70090  80.95981
      19  13.35424  81.54599         21.07145  -0.726814  15.70090  80.95981  11.03461  81.01929  11.00749  82.13221  15.67379  82.07330
      19  13.32694  82.66029         21.08902  -0.719861  15.67379  82.07330  11.00749  82.13221  10.97999  83.24732  15.64629  83.18898
      19  13.29925  83.77679         21.10660  -0.712912  15.64629  83.18898  10.97999  83.24732  10.95211  84.36463  15.61842  84.30685
      19  13.27118  84.89548         21.12420  -0.705968  15.61842  84.30685  10.95211  84.36463  10.92385  85.48414  15.59016  85.42693
      19  13.24273  86.01638         21.14181  -0.699029  15.59016  85.42693  10.92385  85.48414  10.89520  86.60586  15.56152  86.54921
      19  13.21389  87.13948         21.15943  -0.692095  15.56152  86.54921  10.89520  86.60586  10.86617  87.72978  15.53250  87.67369
      19  13.18468  88.26479         21.17707  -0.685167  15.53250  87.67369  10.86617  87.72978  10.83676  88.85591  15.50310  88.80039
      19  13.15508  89.39231         21.19473  -0.678243  15.50310  88.80039  10.83676  88.85591  10.80696  89.98426  15.47331  89.92930
      19  13.12509  90.52205         21.21240  -0.671325  15.47331  89.92930  10.80696  89.98426  10.77678  91.11483  15.44313  91.06044
      19  13.09472  91.65401         21.23008  -0.664412  15.44313  91.06044  10.77678  91.11483  10.74621  92.24762  15.41257  92.19379
      19  13.06396  92.78820         21.24778  -0.657505  15.41257  92.19379  10.74621  92.24762  10.71525  93.38264  15.38162  93.32937
      19  13.03281  93.92461         21.26549  -0.650603  15.38162  93.32937  10.71525  93.38264  10.68391  94.51990  15.35028  94.46719
      19  13.00127  95.06326         21.28322  -0.643707  15.35028  94.46719  10.68391  94.51990  10.65217  95.65938  15.31855  95.60724
      19  12.96935  96.20415         21.30097  -0.636817  15.31855  95.60724  10.65217  95.65938  10.62005  96.80111  15.28643  96.74952
      19  12.93703  97.34728         21.31872  -0.629933  15.28643  96.74952  10.62005  96.80111  10.58753  97.94508  15.25392  97.89405
      19  12.90432  98.49265         21.33650  -0.623054  15.25392  97.89405  10.58753  97.94508  10.55462  99.09130  15.22102  99.04083
      19  12.87121  99.64028         21.35429  -0.616182  15.22102  99.04083  10.55462  99.09130  10.52132 100.23977  15.18772 100.18986
      19  12.83772 100.79016         21.37209  -0.609315  15.18772 100.18986  10.52132 100.23977  10.48762 101.39049  15.15403 101.34115
      19  12.80383 101.94229         21.38991  -0.602455  15.15403 101.34115  10.48762 101.39049  10.45353 102.54348  15.11994 102.49469
      19  12.76954 103.09669         21.40774  -0.595601  15.11994 102.49469  10.45353 102.54348  10.41904 103.69873  15.08546 103.65050
      19  12.73486 104.25335         21.42558  -0.588754  15.08546 103.65050  10.41904 103.69873  10.38416 104.85625  15.05058 104.80857
      19  12.69978 105.41228         21.44345  -0.581913  15.05058 104.80857  10.38416 104.85625  10.34888 106.01604  15.01531 105.96892
      19  12.66430 106.57349         21.46132  -0.575078  15.01531 105.96892  10.34888 106.01604  10.31319 107.17810  14.97963 107.13154
      19  12.62842 107.73697         21.47922  -0.568251  14.97963 107.13154  10.31319 107.17810  10.27711 108.34245  14.94355 108.29644
      19  12.59214 108.90273         21.49712  -0.561430  14.94355 108.29644  10.27711 108.34245  10.24063 109.50908  14.90708 109.46363
      19  12.55546 110.07079         21.51504  -0.554616  14.90708 109.46363  10.24063 109.50908  10.20375 110.67800  14.87020 110.63310
      19  12.51838 111.24113         21.53298  -0.547808  14.87020 110.63310  10.20375 110.67800  10.16646 111.84921  14.83292 111.80487
      19  12.48089 112.41376         21.55093  -0.541008  14.83292 111.80487  10.16646 111.84921  10.12877 113.02271  14.79523 112.97893
      19  12.44300 113.58870         21.56890  -0.534215  14.79523 112.97893  10.12877 113.02271  10.09068 114.19852  14.75714 114.15529
      19  12.40471 114.76593         21.58688  -0.527430  14.75714 114.15529  10.09068 114.19852  10.05218 115.37663  14.71865 115.33395
      19  12.36601 115.94548         21.60488  -0.520651  14.71865 115.33395  10.05218 115.37663  10.01327 116.55706  14.67975 116.51493
      19  12.32690 117.12733         21.62289  -0.513880  14.67975 116.51493  10.01327 116.55706   9.97395 117.73979  14.64044 117.69821
      19  12.28738 118.31150         21.64092  -0.507117  14.64044 117.69821   9.97395 117.73979   9.93423 118.92484  14.60072 118.88381
      19  12.24746 119.49799         21.65896  -0.500361  14.60072 118.88381   9.93423 118.92484   9.89410 120.11222  14.56059 120.07174
      19  12.20712 120.68680         21.67701  -0.493613  14.56059 120.07174   9.89410 120.11222   9.85356 121.30192  14.52005 121.26199
      19  12.16638 121.87793         21.69509  -0.486873  14.52005 121.26199   9.85356 121.30192   9.81260 122.49394  14.47910 122.45456
      19  12.12522 123.07140         21.71317  -0.480140  14.47910 122.45456   9.81260 122.49394   9.77124 123.68831  14.43774 123.64947
      19  12.08365 124.26721         21.73127  -0.473416  14.43774 123.64947   9.77124 123.68831   9.72946 124.88501  14.39597 124.84672
      19  12.04166 125.46535         21.74939  -0.466700  14.39597 124.84672   9.72946 124.88501   9.68726 126.08405  14.35378 126.04631
      18  22.31998   0.55773         20.82705  -0.590110  24.65047   0.05649  19.98405   0.10487  19.98942   1.05893  24.65584   1.01119
      18  22.32521   1.51307         20.84441  -0.582291  24.65584   1.01119  19.98942   1.05893  19.99450   2.01490  24.66093   1.96779
      18  22.33015   2.47030         20.86179  -0.574469  24.66093   1.96779  19.99450   2.01490  19.99930   2.97277  24.66573   2.92630
      18  22.33481   3.42945         20.87918  -0.566643  24.66573   2.92630  19.99930   2.97277  20.00382   3.93255  24.67026   3.88672
      18  22.33919   4.39050         20.89659  -0.558813  24.67026   3.88672  20.00382   3.93255  20.00805   4.89425  24.67450   4.84905
      18  22.34329   5.35347         20.91401  -0.550981  24.67450   4.84905  20.00805   4.89425  20.01200   5.85785  24.67846   5.81330
      18  22.34710   6.31836         20.93144  -0.543146  24.67846   5.81330  20.01200   5.85785  20.01567   6.82338  24.68213   6.77946
      18  22.35063   7.28516         20.94889  -0.535307  24.68213   6.77946  20.01567   6.82338  20.01905   7.79083  24.68552   7.74755
      18  22.35387   8.25389         20.96636  -0.527465  24.68552   7.74755  20.01905   7.79083  20.02215   8.76020  24.68862   8.71756
      18  22.35683   9.22455         20.98384  -0.519621  24.68862   8.71756  20.02215   8.76020  20.02496   9.73150  24.69144   9.68950
      18  22.35950  10.19714         21.00133  -0.511773  24.69144   9.68950  20.02496   9.73150  20.02748  10.70474  24.69396  10.66338
      18  22.36188  11.17166         21.01884  -0.503922  24.69396  10.66338  20.02748  10.70474  20.02972  11.67991  24.69620  11.63919
      18  22.36397  12.14812         21.03636  -0.496069  24.69620  11.63919  20.02972  11.67991  20.03166  12.65702  24.69816  12.61694
      18  22.36578  13.12653         21.05390  -0.488213  24.69816  12.61694  20.03166  12.65702  20.03332  13.63608  24.69982  13.59663
      18  22.36729  14.10687         21.07145  -0.480353  24.69982  13.59663  20.03332  13.63608  20.03469  14.61708  24.70119  14.57827
      18  22.36851  15.08917         21.08902  -0.472492  24.70119  14.57827  20.03469  14.61708  20.03576  15.60003  24.70227  15.56186
      18  22.36945  16.07341         21.10660  -0.464627  24.70227  15.56186  20.03576  15.60003  20.03655  16.58493  24.70306  16.54741
      18  22.37009  17.05962         21.12420  -0.456760  24.70306  16.54741  20.03655  16.58493  20.03704  17.57179  24.70356  17.53491
      18  22.37043  18.04778         21.14181  -0.448890  24.70356  17.53491  20.03704  17.57179  20.03724  18.56061  24.70376  18.52437
      18  22.37049  19.03790         21.15943  -0.441018  24.70376  18.52437  20.03724  18.56061  20.03714  19.55140  24.70367  19.51580
      18  22.37025  20.02999         21.17707  -0.433143  24.70367  19.51580  20.03714  19.55140  20.03675  20.54415  24.70329  20.50919
      18  22.36971  21.02405         21.19473  -0.425266  24.70329  20.50919  20.03675  20.54415  20.03607  21.53887  24.70261  21.50456
      18  22.36888  22.02008         21.21240  -0.417386  24.70261  21.50456  20.03607  21.53887  20.03509  22.53557  24.70163  22.50190
      18  22.36776  23.01809         21.23008  -0.409505  24.70163  22.50190  20.03509  22.53557  20.03381  23.53425  24.70036  23.50122
      18  22.36633  24.01808         21.24778  -0.401620  24.70036  23.50122  20.03381  23.53425  20.03223  24.53491  24.69879  24.50252
      18  22.36461  25.02005         21.26549  -0.393734  24.69879  24.50252  20.03223  24.53491  20.03036  25.53756  24.69692  25.50581
      18  22.36259  26.02402         21.28322  -0.385845  24.69692  25.50581  20.03036  25.53756  20.02819  26.54219  24.69475  26.51108
      18  22.36027  27.02997         21.30097  -0.377955  24.69475  26.51108  20.02819  26.54219  20.02572  27.54882  24.69228  27.51835
      18  22.35765  28.03791         21.31872  -0.370062  24.69228  27.51835  20.02572  27.54882  20.02295  28.55744  24.68952  28.52762
      18  22.35473  29.04786         21.33650  -0.362167  24.68952  28.52762  20.02295  28.55744  20.01987  29.56806  24.68645  29.53888
      18  22.35151  30.05980         21.35429  -0.354270  24.68645  29.53888  20.01987  29.56806  20.01650  30.58069  24.68308  30.55215
      18  22.34799  31.07375         21.37209  -0.346371  24.68308  30.55215  20.01650  30.58069  20.01282  31.59532  24.67940  31.56743
      18  22.34416  32.08971         21.38991  -0.338471  24.67940  31.56743  20.01282  31.59532  20.00884  32.61196  24.67542  32.58472
      18  22.34003  33.10768         21.40774  -0.330568  24.67542  32.58472  20.00884  32.61196  20.00455  33.63062  24.67114  33.60402
      18  22.33559  34.12767         21.42558  -0.322664  24.67114  33.60402  20.00455  33.63062  19.99996  34.65130  24.66656  34.62534
      18  22.33085  35.14968         21.44345  -0.314758  24.66656  34.62534  19.99996  34.65130  19.99507  35.67399  24.66166  35.64868
      18  22.32580  36.17371         21.46132  -0.306851  24.66166  35.64868  19.99507  35.67399  19.98986  36.69872  24.65646  36.67405
      18  22.32045  37.19977         21.47922  -0.298942  24.65646  36.67405  19.98986  36.69872  19.98435  37.72547  24.65096  37.70144
      18  22.31479  38.22786         21.49712  -0.291031  24.65096  37.70144  19.98435  37.72547  19.97854  38.75425  24.64514  38.73087
      18  22.30881  39.25798         21.51504  -0.283119  24.64514  38.73087  19.97854  38.75425  19.97241  39.78507  24.63902  39.76233
      18  22.30254  40.29014         21.53298  -0.275206  24.63902  39.76233  19.97241  39.78507  19.96597  40.81793  24.63259  40.79584
      18  22.29595  41.32435         21.55093  -0.267291  24.63259  40.79584  19.96597  40.81793  19.95923  41.85283  24.62584  41.83138
      18  22.28905  42.36060         21.56890  -0.259374  24.62584  41.83138  19.95923  41.85283  19.95217  42.88978  24.61879  42.86898
      18  22.28183  43.39889         21.58688  -0.251457  24.61879  42.86898  19.95217  42.88978  19.94480  43.92878  24.61142  43.90862
      18  22.27431  44.43924         21.60488  -0.243538  24.61142  43.90862  19.94480  43.92878  19.93712  44.96984  24.60374  44.95032
      18  22.26647  45.48165         21.62289  -0.235619  24.60374  44.95032  19.93712  44.96984  19.92912  46.01295  24.59575  45.99408
      18  22.25832  46.52612         21.64092  -0.227698  24.59575  45.99408  19.92912  46.01295  19.92081  47.05813  24.58744  47.03990
      18  22.24986  47.57265         21.65896  -0.219776  24.58744  47.03990  19.92081  47.05813  19.91219  48.10537  24.57882  48.08779
      18  22.24108  48.62125         21.67701  -0.211853  24.57882  48.08779  19.91219  48.10537  19.90325  49.15468  24.56989  49.13774
      18  22.23198  49.67191         21.69509  -0.203929  24.56989  49.13774  19.90325  49.15468  19.89399  50.20606  24.56063  50.18977
      18  22.22257  50.72466         21.71317  -0.196004  24.56063  50.18977  19.89399  50.20606  19.88442  51.25952  24.55106  51.24388
      18  22.21283  51.77948         21.73127  -0.188079  24.55106  51.24388  19.88442  51.25952  19.87453  52.31506  24.54117  52.30007
      18  22.20278  52.83639         21.74939  -0.180153  24.54117  52.30007  19.87453  52.31506  19.86432  53.37269  24.53096  53.35834
      18  22.19241  53.89538         21.76752  -0.172226  24.53096  53.35834  19.86432  53.37269  19.85379  54.43240  24.52043  54.41869
      18  22.18173  54.95646         21.78567  -0.164299  24.52043  54.41869  19.85379  54.43240  19.84294  55.49420  24.50959  55.48114
      18  22.17072  56.01963         21.80383  -0.156371  24.50959  55.48114  19.84294  55.49420  19.83177  56.55810  24.49842  56.54569
      18  22.15938  57.08491         21.82201  -0.148442  24.49842  56.54569  19.83177  56.55810  19.82027  57.62410  24.48693  57.61233
      18  22.14773  58.15228         21.84020  -0.140513  24.48693  57.61233  19.82027  57.62410  19.80846  58.69220  24.47511  58.68108
      18  22.13575  59.22176         21.85841  -0.132584  24.47511  58.68108  19.80846  58.69220  19.79632  59.76241  24.46297  59.75194
      18  22.12345  60.29335         21.87663  -0.124655  24.46297  59.75194  19.79632  59.76241  19.78385  60.83473  24.45051  60.82490
      18  22.11083  61.36704         21.89487  -0.116725  24.45051  60.82490  19.78385  60.83473  19.77106  61.90917  24.43772  61.89998
      18  22.09788  62.44286         21.91312  -0.108795  24.43772  61.89998  19.77106  61.90917  19.75795  62.98572  24.42461  62.97718
      18  22.08460  63.52080         21.93139  -0.100865  24.42461  62.97718  19.75795  62.98572  19.74451  64.06439  24.41117  64.05650
      18  22.07099  64.60086         21.94968  -0.092935  24.41117  64.05650  19.74451  64.06439  19.73074  65.14520  24.39740  65.13795
      18  22.05706  65.68304         21.96798  -0.085005  24.39740  65.13795  19.73074  65.14520  19.71664  66.22813  24.38330  66.22152
      18  22.04280  66.76736         21.98629  -0.077075  24.38330  66.22152  19.71664  66.22813  19.70221  67.31319  24.36888  67.30723
      18  22.02821  67.85382         22.00462  -0.069145  24.36888  67.30723  19.70221  67.31319  19.68746  68.40039  24.35412  68.39508
      18  22.01329  68.94241         22.02296  -0.061215  24.35412  68.39508  19.68746  68.40039  19.67237  69.48973  24.33904  69.48507
      18  21.99803  70.03315         22.04132  -0.053286  24.33904  69.48507  19.67237  69.48973  19.65695  70.58122  24.32362  70.57720
      18  21.98245  71.12603         22.05970  -0.045357  24.32362  70.57720  19.65695  70.58122  19.64120  71.67485  24.30787  71.67148
      18  21.96653  72.22107         22.07809  -0.037428  24.30787  71.67148  19.64120  71.67485  19.62512  72.77064  24.29178  72.76792
      18  21.95028  73.31826         22.09650  -0.029500  24.29178  72.76792  19.62512  72.77064  19.60870  73.86859  24.27537  73.86651
      18  21.93370  74.41761         22.11492  -0.021573  24.27537  73.86651  19.60870  73.86859  19.59195  74.96869  24.25861  74.96726
      18  21.91678  75.51912         22.13336  -0.013646  24.25861  74.96726  19.59195  74.96869  19.57486  76.07096  24.24152  76.07017
      18  21.89952  76.62279         22.15181  -0.005719  24.24152  76.07017  19.57486  76.07096  19.55743  77.17540  24.22410  77.17526
      18  21.88193  77.72864         22.17027   0.002206  24.22410  77.17526  19.55743  77.17540  19.53967  78.28201  24.20634  78.28251
      18  21.86399  78.83666         22.18876   0.010131  24.20634  78.28251  19.53967  78.28201  19.52157  79.39080  24.18824  79.39195
      18  21.84572  79.94686         22.20726   0.018055  24.18824  79.39195  19.52157  79.39080  19.50313  80.50176  24.16980  80.50356
      18  21.82712  81.05924         22.22577   0.025978  24.16980  80.50356  19.50313  80.50176  19.48435  81.61491  24.15102  81.61735
      18  21.80817  82.17381         22.24430   0.033899  24.15102  81.61735  19.48435  81.61491  19.46523  82.73025  24.13190  82.73334
      18  21.78888  83.29056         22.26284   0.041820  24.13190  82.73334  19.46523  82.73025  19.44577  83.84778  24.11244  83.85151
      18  21.76925  84.40951         22.28140   0.049740  24.11244  83.85151  19.44577  83.84778  19.42597  84.96751  24.09264  84.97188
      18  21.74927  85.53066         22.29998   0.057658  24.09264  84.97188  19.42597  84.96751  19.40582  86.08943  24.07249  86.09445
      18  21.72895  86.65401         22.31857   0.065575  24.07249  86.09445  19.40582  86.08943  19.38534  87.21356  24.05200  87.21922
      18  21.70829  87.77956         22.33718   0.073491  24.05200  87.21922  19.38534  87.21356  19.36450  88.33990  24.03116  88.34620
      18  21.68728  88.90732         22.35580   0.081405  24.03116  88.34620  19.36450  88.33990  19.34332  89.46844  24.00998  89.47539
      18  21.66593  90.03730         22.37444   0.089318  24.00998  89.47539  19.34332  89.46844  19.32180  90.59920  23.98846  90.60680
      18  21.64423  91.16950         22.39309   0.097229  23.98846  90.60680  19.32180  90.59920  19.29992  91.73219  23.96658  91.74043
      18  21.62218  92.30391         22.41176   0.105138  23.96658  91.74043  19.29992  91.73219  19.27770  92.86739  23.94436  92.87628
      18  21.59979  93.44055         22.43044   0.113046  23.94436  92.87628  19.27770  92.86739  19.25513  94.00482  23.92179  94.01435
      18  21.57704  94.57942         22.44914   0.120952  23.92179  94.01435  19.25513  94.00482  19.23221  95.14449  23.89887  95.15466
      18  21.55395  95.72052         22.46786   0.128856  23.89887  95.15466  19.23221  95.14449  19.20894  96.28639  23.87560  96.29720
      18  21.53050  96.86387         22.48659   0.136758  23.87560  96.29720  19.20894  96.28639  19.18532  97.43053  23.85197  97.44199
      18  21.50670  98.00945         22.50534   0.144658  23.85197  97.44199  19.18532  97.43053  19.16135  98.57691  23.82800  98.58901
      18  21.48255  99.15727         22.52410   0.152556  23.82800  98.58901  19.16135  98.57691  19.13702  99.72554  23.80367  99.73828
      18  21.45805 100.30735         22.54288   0.160452  23.80367  99.73828  19.13702  99.72554  19.11234 100.87642  23.77899 100.88981
      18  21.43319 101.45968         22.56167   0.168345  23.77899 100.88981  19.11234 100.87642  19.08730 102.02955  23.75395 102.04359
      18  21.40797 102.61427         22.58048   0.176236  23.75395 102.04359  19.08730 102.02955  19.06191 103.18495  23.72856 103.19963
      18  21.38240 103.77112         22.59930   0.184125  23.72856 103.19963  19.06191 103.18495  19.03617 104.34261  23.70281 104.35793
      18  21.35648 104.93023         22.61814   0.192011  23.70281 104.35793  19.03617 104.34261  19.01006 105.50254  23.67670 105.51850
      18  21.33019 106.09161         22.63700   0.199895  23.67670 105.51850  19.01006 105.50254  18.98360 106.66474  23.65023 106.68134
      18  21.30355 107.25527         22.65587   0.207776  23.65023 106.68134  18.98360 106.66474  18.95678 107.82921  23.62341 107.84645
      18  21.27654 108.42121         22.67476   0.215654  23.62341 107.84645  18.95678 107.82921  18.92959 108.99596  23.59623 109.01385
      18  21.24918 109.58942         22.69366   0.223530  23.59623 109.01385  18.92959 108.99596  18.90205 110.16500  23.56868 110.18353
      18  21.22146 110.75993         22.71258   0.231402  23.56868 110.18353  18.90205 110.16500  18.87415 111.33633  23.54077 111.35550
      18  21.19337 111.93272         22.73152   0.239272  23.54077 111.35550  18.87415 111.33633  18.84588 112.50995  23.51250 112.52976
      18  21.16492 113.10780         22.75047   0.247138  23.51250 112.52976  18.84588 112.50995  18.81725 113.68586  23.48387 113.70631
      18  21.13611 114.28519         22.76944   0.255002  23.48387 113.70631  18.81725 113.68586  18.78825 114.86408  23.45487 114.88517
      18  21.10693 115.46488         22.78842   0.262862  23.45487 114.88517  18.78825 114.86408  18.75890 116.04460  23.42551 116.06633
      18  21.07738 116.64687         22.80742   0.270719  23.42551 116.06633  18.75890 116.04460  18.72917 117.22742  23.39578 117.24979
      18  21.04747 117.83117         22.82643   0.278572  23.39578 117.24979  18.72917 117.22742  18.69908 118.41256  23.36569 118.43557
      18  21.01719 119.01779         22.84546   0.286422  23.36569 118.43557  18.69908 118.41256  18.66862 119.60002  23.33522 119.62367
      18  20.98655 120.20673         22.86451   0.294269  23.33522 119.62367  18.66862 119.60002  18.63779 120.78980  23.30439 120.81409
      18  20.95553 121.39799         22.88357   0.302112  23.30439 120.81409  18.63779 120.78980  18.60659 121.98190  23.27319 122.00683
      18  20.92415 122.59158         22.90265   0.309951  23.27319 122.00683  18.60659 121.98190  18.57502 123.17634  23.24162 123.20190
      18  20.89239 123.78750         22.92174   0.317786  23.24162 123.20190  18.57502 123.17634  18.54308 124.37310  23.20967 124.39931
      18  20.86026 124.98575         22.94085   0.325618  23.20967 124.39931  18.54308 124.37310  18.51077 125.57221  23.17736 125.59905
      18  20.82776 126.18634         22.95997   0.333445  23.17736 125.59905  18.51077 125.57221  18.47808 126.77366  23.14467 126.80113
      17  31.07337   0.48481         22.04132   0.190827  33.40100   0.01498  28.73435  -0.00021  28.74568   0.95457  33.41232   0.97047
      17  31.08458   1.44091         22.05970   0.199492  33.41232   0.97047  28.74568   0.95457  28.75677   1.91127  33.42341   1.92787
      17  31.09554   2.39892         22.07809   0.208164  33.42341   1.92787  28.75677   1.91127  28.76761   2.86989  33.43425   2.88720
      17  31.10626   3.35885         22.09650   0.216843  33.43425   2.88720  28.76761   2.86989  28.77821   3.83042  33.44484   3.84844
      17  31.11673   4.32070         22.11492   0.225527  33.44484   3.84844  28.77821   3.83042  28.78856   4.79288  33.45519   4.81160
      17  31.12695   5.28447         22.13336   0.234217  33.45519   4.81160  28.78856   4.79288  28.79866   5.75726  33.46528   5.77669
      17  31.13693   6.25017         22.15181   0.242913  33.46528   5.77669  28.79866   5.75726  28.80851   6.72358  33.47514   6.74372
      17  31.14666   7.21781         22.17027   0.251616  33.47514   6.74372  28.80851   6.72358  28.81812   7.69183  33.48474   7.71267
      17  31.15614   8.18738         22.18876   0.260324  33.48474   7.71267  28.81812   7.69183  28.82748   8.66201  33.49409   8.68357
      17  31.16537   9.15889         22.20726   0.269038  33.49409   8.68357  28.82748   8.66201  28.83659   9.63413  33.50320   9.65640
      17  31.17435  10.13234         22.22577   0.277758  33.50320   9.65640  28.83659   9.63413  28.84544  10.60820  33.51205  10.63118
      17  31.18308  11.10774         22.24430   0.286483  33.51205  10.63118  28.84544  10.60820  28.85405  11.58422  33.52066  11.60791
      17  31.19156  12.08508         22.26284   0.295215  33.52066  11.60791  28.85405  11.58422  28.86241  12.56218  33.52901  12.58659
      17  31.19979  13.06438         22.28140   0.303952  33.52901  12.58659  28.86241  12.56218  28.87051  13.54211  33.53711  13.56722
      17  31.20777  14.04564         22.29998   0.312695  33.53711  13.56722  28.87051  13.54211  28.87836  14.52398  33.54496  14.54981
      17  31.21549  15.02885         22.31857   0.321444  33.54496  14.54981  28.87836  14.52398  28.88596  15.50782  33.55255  15.53436
      17  31.22296  16.01403         22.33718   0.330198  33.55255  15.53436  28.88596  15.50782  28.89331  16.49363  33.55989  16.52088
      17  31.23018  17.00118         22.35580   0.338958  33.55989  16.52088  28.89331  16.49363  28.90040  17.48140  33.56698  17.50937
      17  31.23714  17.99029         22.37444   0.347723  33.56698  17.50937  28.90040  17.48140  28.90723  18.47115  33.57381  18.49983
      17  31.24384  18.98138         22.39309   0.356494  33.57381  18.49983  28.90723  18.47115  28.91381  19.46287  33.58038  19.49226
      17  31.25029  19.97445         22.41176   0.365270  33.58038  19.49226  28.91381  19.46287  28.92013  20.45657  33.58670  20.48668
      17  31.25648  20.96950         22.43044   0.374052  33.58670  20.48668  28.92013  20.45657  28.92620  21.45226  33.59276  21.48308
      17  31.26241  21.96654         22.44914   0.382839  33.59276  21.48308  28.92620  21.45226  28.93200  22.44993  33.59856  22.48147
      17  31.26809  22.96556         22.46786   0.391632  33.59856  22.48147  28.93200  22.44993  28.93755  23.44959  33.60411  23.48184
      17  31.27351  23.96658         22.48659   0.400429  33.60411  23.48184  28.93755  23.44959  28.94284  24.45124  33.60939  24.48421
      17  31.27866  24.96959         22.50534   0.409232  33.60939  24.48421  28.94284  24.45124  28.94787  25.45489  33.61442  25.48858
      17  31.28356  25.97460         22.52410   0.418041  33.61442  25.48858  28.94787  25.45489  28.95264  26.46054  33.61918  26.49495
      17  31.28820  26.98161         22.54288   0.426854  33.61918  26.49495  28.95264  26.46054  28.95715  27.46820  33.62368  27.50333
      17  31.29257  27.99063         22.56167   0.435673  33.62368  27.50333  28.95715  27.46820  28.96140  28.47786  33.62792  28.51371
      17  31.29668  29.00166         22.58048   0.444496  33.62792  28.51371  28.96140  28.47786  28.96538  29.48954  33.63190  29.52610
      17  31.30053  30.01470         22.59930   0.453325  33.63190  29.52610  28.96538  29.48954  28.96910  30.50323  33.63562  30.54051
      17  31.30412  31.02976         22.61814   0.462159  33.63562  30.54051  28.96910  30.50323  28.97256  31.51894  33.63907  31.55694
      17  31.30744  32.04684         22.63700   0.470997  33.63907  31.55694  28.97256  31.51894  28.97575  32.53667  33.64226  32.57539
      17  31.31050  33.06595         22.65587   0.479841  33.64226  32.57539  28.97575  32.53667  28.97868  33.55643  33.64518  33.59587
      17  31.31329  34.08708         22.67476   0.488689  33.64518  33.59587  28.97868  33.55643  28.98134  34.57822  33.64783  34.61838
      17  31.31582  35.11025         22.69366   0.497543  33.64783  34.61838  28.98134  34.57822  28.98374  35.60204  33.65022  35.64293
      17  31.31808  36.13545         22.71258   0.506401  33.65022  35.64293  28.98374  35.60204  28.98587  36.62790  33.65235  36.66951
      17  31.32007  37.16269         22.73152   0.515263  33.65235  36.66951  28.98587  36.62790  28.98773  37.65580  33.65420  37.69813
      17  31.32179  38.19197         22.75047   0.524131  33.65420  37.69813  28.98773  37.65580  28.98932  38.68575  33.65579  38.72880
      17  31.32325  39.22330         22.76944   0.533003  33.65579  38.72880  28.98932  38.68575  28.99064  39.71774  33.65710  39.76151
      17  31.32443  40.25668         22.78842   0.541880  33.65710  39.76151  28.99064  39.71774  28.99170  40.75178  33.65815  40.79628
      17  31.32535  41.29211         22.80742   0.550761  33.65815  40.79628  28.99170  40.75178  28.99248  41.78789  33.65893  41.83311
      17  31.32599  42.32961         22.82643   0.559647  33.65893  41.83311  28.99248  41.78789  28.99299  42.82605  33.65943  42.87199
      17  31.32636  43.36916         22.84546   0.568537  33.65943  42.87199  28.99299  42.82605  28.99323  43.86627  33.65966  43.91294
      17  31.32646  44.41078         22.86451   0.577432  33.65966  43.91294  28.99323  43.86627  28.99320  44.90856  33.65962  44.95595
      17  31.32629  45.45446         22.88357   0.586331  33.65962  44.95595  28.99320  44.90856  28.99289  45.95292  33.65931  46.00104
      17  31.32584  46.50022         22.90265   0.595234  33.65931  46.00104  28.99289  45.95292  28.99231  46.99935  33.65872  47.04819
      17  31.32512  47.54806         22.92174   0.604142  33.65872  47.04819  28.99231  46.99935  28.99146  48.04786  33.65786  48.09743
      17  31.32413  48.59798         22.94085   0.613053  33.65786  48.09743  28.99146  48.04786  28.99033  49.09846  33.65673  49.14875
      17  31.32286  49.64998         22.95997   0.621970  33.65673  49.14875  28.99033  49.09846  28.98893  50.15114  33.65531  50.20216
      17  31.32131  50.70406         22.97912   0.630890  33.65531  50.20216  28.98893  50.15114  28.98724  51.20591  33.65362  51.25765
      17  31.31949  51.76024         22.99827   0.639814  33.65362  51.25765  28.98724  51.20591  28.98528  52.26277  33.65166  52.31524
      17  31.31738  52.81851         23.01745   0.648742  33.65166  52.31524  28.98528  52.26277  28.98305  53.32173  33.64941  53.37493
      17  31.31500  53.87889         23.03663   0.657674  33.64941  53.37493  28.98305  53.32173  28.98053  54.38279  33.64689  54.43671
      17  31.31234  54.94136         23.05584   0.666611  33.64689  54.43671  28.98053  54.38279  28.97774  55.44595  33.64408  55.50061
      17  31.30941  56.00594         23.07506   0.675551  33.64408  55.50061  28.97774  55.44595  28.97466  56.51122  33.64100  56.56661
      17  31.30619  57.07263         23.09430   0.684495  33.64100  56.56661  28.97466  56.51122  28.97131  57.57860  33.63764  57.63472
      17  31.30269  58.14144         23.11355   0.693442  33.63764  57.63472  28.97131  57.57860  28.96767  58.64810  33.63399  58.70495
      17  31.29890  59.21236         23.13282   0.702394  33.63399  58.70495  28.96767  58.64810  28.96375  59.71972  33.63006  59.77729
      17  31.29484  60.28541         23.15211   0.711349  33.63006  59.77729  28.96375  59.71972  28.95955  60.79346  33.62585  60.85176
      17  31.29049  61.36058         23.17141   0.720307  33.62585  60.85176  28.95955  60.79346  28.95506  61.86933  33.62135  61.92836
      17  31.28586  62.43788         23.19073   0.729270  33.62135  61.92836  28.95506  61.86933  28.95029  62.94733  33.61658  63.00709
      17  31.28094  63.51731         23.21006   0.738235  33.61658  63.00709  28.95029  62.94733  28.94524  64.02747  33.61151  64.08796
      17  31.27574  64.59888         23.22941   0.747205  33.61151  64.08796  28.94524  64.02747  28.93990  65.10974  33.60616  65.17096
      17  31.27025  65.68259         23.24877   0.756177  33.60616  65.17096  28.93990  65.10974  28.93427  66.19416  33.60052  66.25611
      17  31.26447  66.76844         23.26816   0.765153  33.60052  66.25611  28.93427  66.19416  28.92835  67.28072  33.59460  67.34340
      17  31.25841  67.85644         23.28755   0.774133  33.59460  67.34340  28.92835  67.28072  28.92215  68.36943  33.58839  68.43285
      17  31.25206  68.94660         23.30697   0.783115  33.58839  68.43285  28.92215  68.36943  28.91566  69.46030  33.58189  69.52444
      17  31.24542  70.03891         23.32640   0.792101  33.58189  69.52444  28.91566  69.46030  28.90888  70.55332  33.57510  70.61820
      17  31.23849  71.13338         23.34585   0.801090  33.57510  70.61820  28.90888  70.55332  28.90181  71.64851  33.56802  71.71412
      17  31.23127  72.23002         23.36531   0.810082  33.56802  71.71412  28.90181  71.64851  28.89445  72.74586  33.56065  72.81220
      17  31.22376  73.32882         23.38479   0.819077  33.56065  72.81220  28.89445  72.74586  28.88680  73.84538  33.55298  73.91246
      17  31.21595  74.42979         23.40428   0.828075  33.55298  73.91246  28.88680  73.84538  28.87886  74.94708  33.54503  75.01489
      17  31.20786  75.53294         23.42380   0.837076  33.54503  75.01489  28.87886  74.94708  28.87062  76.05095  33.53678  76.11949
      17  31.19947  76.63827         23.44332   0.846080  33.53678  76.11949  28.87062  76.05095  28.86209  77.15700  33.52824  77.22628
      17  31.19079  77.74579         23.46287   0.855087  33.52824  77.22628  28.86209  77.15700  28.85326  78.26524  33.51941  78.33525
      17  31.18181  78.85549         23.48243   0.864096  33.51941  78.33525  28.85326  78.26524  28.84414  79.37567  33.51028  79.44642
      17  31.17254  79.96738         23.50201   0.873108  33.51028  79.44642  28.84414  79.37567  28.83473  80.48830  33.50085  80.55977
      17  31.16297  81.08147         23.52160   0.882123  33.50085  80.55977  28.83473  80.48830  28.82502  81.60311  33.49113  81.67533
      17  31.15310  82.19776         23.54121   0.891140  33.49113  81.67533  28.82502  81.60311  28.81501  82.72013  33.48111  82.79308
      17  31.14294  83.31625         23.56083   0.900160  33.48111  82.79308  28.81501  82.72013  28.80470  83.83936  33.47079  83.91304
      17  31.13248  84.43694         23.58048   0.909183  33.47079  83.91304  28.80470  83.83936  28.79410  84.96079  33.46017  85.03521
      17  31.12171  85.55985         23.60013   0.918207  33.46017  85.03521  28.79410  84.96079  28.78319  86.08444  33.44925  86.15959
      17  31.11065  86.68497         23.61981   0.927234  33.44925  86.15959  28.78319  86.08444  28.77199  87.21031  33.43804  87.28619
      17  31.09929  87.81232         23.63950   0.936264  33.43804  87.28619  28.77199  87.21031  28.76048  88.33839  33.42652  88.41501
      17  31.08763  88.94188         23.65921   0.945295  33.42652  88.41501  28.76048  88.33839  28.74867  89.46870  33.41470  89.54606
      17  31.07567  90.07367         23.67893   0.954329  33.41470  89.54606  28.74867  89.46870  28.73657  90.60124  33.40258  90.67933
      17  31.06340  91.20770         23.69867   0.963365  33.40258  90.67933  28.73657  90.60124  28.72415  91.73601  33.39015  91.81484
      17  31.05083  92.34395         23.71843   0.972403  33.39015  91.81484  28.72415  91.73601  28.71144  92.87302  33.37742  92.95259
      17  31.03795  93.48245         23.73820   0.981443  33.37742  92.95259  28.71144  92.87302  28.69842  94.01227  33.36439  94.09257
      17  31.02477  94.62319         23.75799   0.990485  33.36439  94.09257  28.69842  94.01227  28.68509  95.15377  33.35105  95.23480
      17  31.01129  95.76618         23.77780   0.999528  33.35105  95.23480  28.68509  95.15377  28.67146  96.29751  33.33741  96.37928
      17  30.99750  96.91142         23.79762   1.008574  33.33741  96.37928  28.67146  96.29751  28.65752  97.44351  33.32346  97.52602
      17  30.98340  98.05891         23.81746   1.017621  33.32346  97.52602  28.65752  97.44351  28.64327  98.59176  33.30920  98.67501
      17  30.96899  99.20866         23.83732   1.026670  33.30920  98.67501  28.64327  98.59176  28.62872  99.74228  33.29463  99.82626
      17  30.95427 100.36068         23.85719   1.035721  33.29463  99.82626  28.62872  99.74228  28.61385 100.89506  33.27975 100.97978
      17  30.93925 101.51496         23.87708   1.044773  33.27975 100.97978  28.61385 100.89506  28.59868 102.05011  33.26456 102.13557
      17  30.92391 102.67152         23.89699   1.053826  33.26456 102.13557  28.59868 102.05011  28.58320 103.20743  33.24907 103.29363
      17  30.90827 103.83035         23.91691   1.062881  33.24907 103.29363  28.58320 103.20743  28.56740 104.36703  33.23326 104.45397
      17  30.89231 104.99146         23.93685   1.071938  33.23326 104.45397  28.56740 104.36703  28.55129 105.52891  33.21714 105.61658
      17  30.87604 106.15485         23.95681   1.080995  33.21714 105.61658  28.55129 105.52891  28.53487 106.69308  33.20070 106.78149
      17  30.85945 107.32053         23.97678   1.090054  33.20070 106.78149  28.53487 106.69308  28.51814 107.85954  33.18395 107.94869
      17  30.84256 108.48851         23.99677   1.099114  33.18395 107.94869  28.51814 107.85954  28.50109 109.02829  33.16689 109.11818
      17  30.82534 109.65878         24.01677   1.108175  33.16689 109.11818  28.50109 109.02829  28.48373 110.19934  33.14951 110.28996
      17  30.80781 110.83135         24.03679   1.117237  33.14951 110.28996  28.48373 110.19934  28.46605 111.37269  33.13182 111.46405
      17  30.78997 112.00622         24.05683   1.126300  33.13182 111.46405  28.46605 111.37269  28.44805 112.54835  33.11381 112.64045
      17  30.77181 113.18340         24.07689   1.135364  33.11381 112.64045  28.44805 112.54835  28.42974 113.72632  33.09548 113.81915
      17  30.75333 114.36290         24.09696   1.144429  33.09548 113.81915  28.42974 113.72632  28.41111 114.90660  33.07684 115.00018
      17  30.73453 115.54471         24.11705   1.153495  33.07684 115.00018  28.41111 114.90660  28.39216 116.08920  33.05787 116.18352
      17  30.71541 116.72884         24.13716   1.162561  33.05787 116.18352  28.39216 116.08920  28.37289 117.27413  33.03859 117.36918
      17  30.69598 117.91530         24.15728   1.171628  33.03859 117.36918  28.37289 117.27413  28.35330 118.46138  33.01898 118.55717
      17  30.67622 119.10408         24.17742   1.180695  33.01898 118.55717  28.35330 118.46138  28.33339 119.65096  32.99905 119.74749
      17  30.65614 120.29520         24.19758   1.189763  32.99905 119.74749  28.33339 119.65096  28.31315 120.84288  32.97881 120.94015
      17  30.63574 121.48866         24.21775   1.198831  32.97881 120.94015  28.31315 120.84288  28.29260 122.03714  32.95823 122.13514
      17  30.61501 122.68446         24.23794   1.207900  32.95823 122.13514  28.29260 122.03714  28.27172 123.23374  32.93734 123.33248
      17  30.59396 123.88260         24.25814   1.216969  32.93734 123.33248  28.27172 123.23374  28.25051 124.43269  32.91612 124.53217
      17  30.57258 125.08309         24.27837   1.226038  32.91612 124.53217  28.25051 124.43269  28.22898 125.63399  32.89457 125.73421
      17  30.55088 126.28594         24.29861   1.235107  32.89457 125.73421  28.22898 125.63399  28.20713 126.83765  32.87270 126.93861
      17  30.52886 127.49115         24.31887   1.244176  32.87270 126.93861  28.20713 126.83765  28.18494 128.04367  32.85050 128.14536
      16  40.90941   1.41081         23.42380   1.088488  43.23342   0.97564  38.56759   0.88738  38.58536   1.84586  43.25117   1.93491
      16  40.92707   2.37064         23.44332   1.098139  43.25117   1.93491  38.58536   1.84586  38.60292   2.80626  43.26872   2.89609
      16  40.94452   3.33238         23.46287   1.107799  43.26872   2.89609  38.60292   2.80626  38.62028   3.76856  43.28606   3.85918
      16  40.96177   4.29604         23.48243   1.117468  43.28606   3.85918  38.62028   3.76856  38.63743   4.73279  43.30320   4.82419
      16  40.97881   5.26162         23.50201   1.127147  43.30320   4.82419  38.63743   4.73279  38.65437   5.69893  43.32013   5.79112
      16  40.99564   6.22912         23.52160   1.136834  43.32013   5.79112  38.65437   5.69893  38.67111   6.66700  43.33685   6.75998
      16  41.01227   7.19854         23.54121   1.146531  43.33685   6.75998  38.67111   6.66700  38.68764   7.63699  43.35337   7.73077
      16  41.02869   8.16990         23.56083   1.156237  43.35337   7.73077  38.68764   7.63699  38.70397   8.60892  43.36968   8.70348
      16  41.04490   9.14319         23.58048   1.165952  43.36968   8.70348  38.70397   8.60892  38.72008   9.58278  43.38577   9.67814
      16  41.06091  10.11842         23.60013   1.175675  43.38577   9.67814  38.72008   9.58278  38.73599  10.55858  43.40167  10.65473
      16  41.07670  11.09558         23.61981   1.185408  43.40167  10.65473  38.73599  10.55858  38.75169  11.53632  43.41735  11.63326
      16  41.09228  12.07469         23.63950   1.195150  43.41735  11.63326  38.75169  11.53632  38.76718  12.51601  43.43282  12.61374
      16  41.10766  13.05575         23.65921   1.204901  43.43282  12.61374  38.76718  12.51601  38.78245  13.49764  43.44808  13.59617
      16  41.12282  14.03876         23.67893   1.214660  43.44808  13.59617  38.78245  13.49764  38.79752  14.48123  43.46313  14.58055
      16  41.13778  15.02372         23.69867   1.224428  43.46313  14.58055  38.79752  14.48123  38.81237  15.46678  43.47797  15.56689
      16  41.15252  16.01064         23.71843   1.234206  43.47797  15.56689  38.81237  15.46678  38.82702  16.45428  43.49259  16.55519
      16  41.16704  16.99952         23.73820   1.243992  43.49259  16.55519  38.82702  16.45428  38.84145  17.44374  43.50701  17.54545
      16  41.18136  17.99037         23.75799   1.253787  43.50701  17.54545  38.84145  17.44374  38.85567  18.43517  43.52121  18.53768
      16  41.19546  18.98319         23.77780   1.263590  43.52121  18.53768  38.85567  18.43517  38.86967  19.42857  43.53519  19.53188
      16  41.20935  19.97797         23.79762   1.273403  43.53519  19.53188  38.86967  19.42857  38.88346  20.42395  43.54896  20.52806
      16  41.22302  20.97474         23.81746   1.283224  43.54896  20.52806  38.88346  20.42395  38.89703  21.42130  43.56252  21.52621
      16  41.23648  21.97348         23.83732   1.293053  43.56252  21.52621  38.89703  21.42130  38.91039  22.42063  43.57586  22.52634
      16  41.24972  22.97420         23.85719   1.302892  43.57586  22.52634  38.91039  22.42063  38.92354  23.42195  43.58899  23.52846
      16  41.26275  23.97691         23.87708   1.312738  43.58899  23.52846  38.92354  23.42195  38.93646  24.42525  43.60190  24.53256
      16  41.27556  24.98161         23.89699   1.322594  43.60190  24.53256  38.93646  24.42525  38.94917  25.43055  43.61459  25.53866
      16  41.28815  25.98831         23.91691   1.332458  43.61459  25.53866  38.94917  25.43055  38.96167  26.43784  43.62706  26.54676
      16  41.30053  26.99700         23.93685   1.342331  43.62706  26.54676  38.96167  26.43784  38.97394  27.44712  43.63932  27.55685
      16  41.31268  28.00769         23.95681   1.352212  43.63932  27.55685  38.97394  27.44712  38.98600  28.45841  43.65135  28.56894
      16  41.32462  29.02038         23.97678   1.362101  43.65135  28.56894  38.98600  28.45841  38.99783  29.47171  43.66317  29.58304
      16  41.33633  30.03508         23.99677   1.371999  43.66317  29.58304  38.99783  29.47171  39.00945  30.48701  43.67477  30.59915
      16  41.34783  31.05180         24.01677   1.381905  43.67477  30.59915  39.00945  30.48701  39.02085  31.50433  43.68615  31.61728
      16  41.35911  32.07053         24.03679   1.391820  43.68615  31.61728  39.02085  31.50433  39.03202  32.52367  43.69730  32.63742
      16  41.37016  33.09128         24.05683   1.401743  43.69730  32.63742  39.03202  32.52367  39.04298  33.54502  43.70824  33.65958
      16  41.38099  34.11405         24.07689   1.411674  43.70824  33.65958  39.04298  33.54502  39.05371  34.56840  43.71895  34.68377
      16  41.39161  35.13884         24.09696   1.421614  43.71895  34.68377  39.05371  34.56840  39.06422  35.59380  43.72944  35.70998
      16  41.40199  36.16567         24.11705   1.431562  43.72944  35.70998  39.06422  35.59380  39.07450  36.62124  43.73970  36.73823
      16  41.41216  37.19453         24.13716   1.441518  43.73970  36.73823  39.07450  36.62124  39.08456  37.65071  43.74974  37.76851
      16  41.42210  38.22542         24.15728   1.451482  43.74974  37.76851  39.08456  37.65071  39.09440  38.68222  43.75956  38.80083
      16  41.43181  39.25836         24.17742   1.461454  43.75956  38.80083  39.09440  38.68222  39.10401  39.71577  43.76915  39.83520
      16  41.44130  40.29334         24.19758   1.471435  43.76915  39.83520  39.10401  39.71577  39.11340  40.75137  43.77852  40.87161
      16  41.45056  41.33037         24.21775   1.481423  43.77852  40.87161  39.11340  40.75137  39.12256  41.78901  43.78766  41.91007
      16  41.45960  42.36945         24.23794   1.491420  43.78766  41.91007  39.12256  41.78901  39.13149  42.82871  43.79657  42.95058
      16  41.46841  43.41058         24.25814   1.501425  43.79657  42.95058  39.13149  42.82871  39.14020  43.87047  43.80526  43.99315
      16  41.47699  44.45377         24.27837   1.511437  43.80526  43.99315  39.14020  43.87047  39.14868  44.91429  43.81371  45.03778
      16  41.48535  45.49903         24.29861   1.521458  43.81371  45.03778  39.14868  44.91429  39.15693  45.96017  43.82194  46.08448
      16  41.49347  46.54635         24.31887   1.531486  43.82194  46.08448  39.15693  45.96017  39.16495  47.00812  43.82994  47.13325
      16  41.50137  47.59575         24.33914   1.541522  43.82994  47.13325  39.16495  47.00812  39.17274  48.05814  43.83771  48.18409
      16  41.50903  48.64721         24.35943   1.551566  43.83771  48.18409  39.17274  48.05814  39.18031  49.11023  43.84525  49.23700
      16  41.51647  49.70076         24.37974   1.561618  43.84525  49.23700  39.18031  49.11023  39.18764  50.16441  43.85256  50.29199
      16  41.52367  50.75638         24.40006   1.571678  43.85256  50.29199  39.18764  50.16441  39.19474  51.22066  43.85964  51.34907
      16  41.53064  51.81409         24.42041   1.581745  43.85964  51.34907  39.19474  51.22066  39.20160  52.27901  43.86648  52.40823
      16  41.53738  52.87389         24.44076   1.591820  43.86648  52.40823  39.20160  52.27901  39.20824  53.33944  43.87309  53.46949
      16  41.54389  53.93578         24.46114   1.601902  43.87309  53.46949  39.20824  53.33944  39.21464  54.40197  43.87947  54.53284
      16  41.55016  54.99977         24.48153   1.611993  43.87947  54.53284  39.21464  54.40197  39.22081  55.46660  43.88562  55.59829
      16  41.55620  56.06586         24.50194   1.622091  43.88562  55.59829  39.22081  55.46660  39.22674  56.53332  43.89153  56.66584
      16  41.56201  57.13405         24.52237   1.632196  43.89153  56.66584  39.22674  56.53332  39.23244  57.60216  43.89720  57.73549
      16  41.56758  58.20435         24.54281   1.642309  43.89720  57.73549  39.23244  57.60216  39.23790  58.67310  43.90264  58.80726
      16  41.57291  59.27676         24.56327   1.652429  43.90264  58.80726  39.23790  58.67310  39.24313  59.74616  43.90785  59.88114
      16  41.57801  60.35129         24.58375   1.662557  43.90785  59.88114  39.24313  59.74616  39.24812  60.82133  43.91281  60.95713
      16  41.58287  61.42793         24.60425   1.672692  43.91281  60.95713  39.24812  60.82133  39.25288  61.89862  43.91754  62.03525
      16  41.58749  62.50670         24.62476   1.682834  43.91754  62.03525  39.25288  61.89862  39.25739  62.97804  43.92203  63.11550
      16  41.59187  63.58759         24.64529   1.692984  43.92203  63.11550  39.25739  62.97804  39.26167  64.05958  43.92628  64.19787
      16  41.59602  64.67062         24.66584   1.703141  43.92628  64.19787  39.26167  64.05958  39.26570  65.14326  43.93030  65.28237
      16  41.59992  65.75577         24.68640   1.713306  43.93030  65.28237  39.26570  65.14326  39.26950  66.22907  43.93407  66.36901
      16  41.60359  66.84307         24.70698   1.723477  43.93407  66.36901  39.26950  66.22907  39.27306  67.31703  43.93760  67.45779
      16  41.60701  67.93251         24.72758   1.733656  43.93760  67.45779  39.27306  67.31703  39.27638  68.40712  43.94089  68.54872
      16  41.61020  69.02409         24.74819   1.743841  43.94089  68.54872  39.27638  68.40712  39.27945  69.49936  43.94394  69.64179
      16  41.61314  70.11783         24.76882   1.754034  43.94394  69.64179  39.27945  69.49936  39.28228  70.59376  43.94675  70.73702
      16  41.61584  71.21372         24.78947   1.764234  43.94675  70.73702  39.28228  70.59376  39.28487  71.69031  43.94932  71.83440
      16  41.61829  72.31176         24.81014   1.774441  43.94932  71.83440  39.28487  71.69031  39.28722  72.78902  43.95164  72.93394
      16  41.62051  73.41197         24.83082   1.784655  43.95164  72.93394  39.28722  72.78902  39.28932  73.88989  43.95371  74.03564
      16  41.62247  74.51434         24.85152   1.794875  43.95371  74.03564  39.28932  73.88989  39.29118  74.99293  43.95555  75.13951
      16  41.62420  75.61888         24.87224   1.805103  43.95555  75.13951  39.29118  74.99293  39.29280  76.09814  43.95713  76.24555
      16  41.62567  76.72559         24.89298   1.815337  43.95713  76.24555  39.29280  76.09814  39.29416  77.20552  43.95847  77.35377
      16  41.62690  77.83448         24.91373   1.825578  43.95847  77.35377  39.29416  77.20552  39.29528  78.31508  43.95957  78.46417
      16  41.62789  78.94555         24.93450   1.835826  43.95957  78.46417  39.29528  78.31508  39.29616  79.42683  43.96041  79.57674
      16  41.62862  80.05880         24.95529   1.846081  43.96041  79.57674  39.29616  79.42683  39.29678  80.54076  43.96101  80.69151
      16  41.62911  81.17425         24.97609   1.856342  43.96101  80.69151  39.29678  80.54076  39.29716  81.65688  43.96136  81.80847
      16  41.62935  82.29188         24.99692   1.866609  43.96136  81.80847  39.29716  81.65688  39.29729  82.77519  43.96147  82.92762
      16  41.62934  83.41171         25.01775   1.876884  43.96147  82.92762  39.29729  82.77519  39.29717  83.89571  43.96132  84.04897
      16  41.62908  84.53375         25.03861   1.887165  43.96132  84.04897  39.29717  83.89571  39.29680  85.01842  43.96092  85.17252
      16  41.62857  85.65798         25.05949   1.897452  43.96092  85.17252  39.29680  85.01842  39.29617  86.14334  43.96027  86.29828
      16  41.62781  86.78443         25.08038   1.907746  43.96027  86.29828  39.29617  86.14334  39.29530  87.27047  43.95937  87.42625
      16  41.62680  87.91308         25.10129   1.918046  43.95937  87.42625  39.29530  87.27047  39.29418  88.39982  43.95821  88.55643
      16  41.62553  89.04396         25.12221   1.928352  43.95821  88.55643  39.29418  88.39982  39.29280  89.53138  43.95681  89.68883
      16  41.62401  90.17705         25.14316   1.938665  43.95681  89.68883  39.29280  89.53138  39.29117  90.66517  43.95515  90.82346
      16  41.62224  91.31237         25.16412   1.948984  43.95515  90.82346  39.29117  90.66517  39.28928  91.80118  43.95323  91.96031
      16  41.62021  92.44991         25.18510   1.959309  43.95323  91.96031  39.28928  91.80118  39.28714  92.93942  43.95106  93.09939
      16  41.61793  93.58969         25.20609   1.969641  43.95106  93.09939  39.28714  92.93942  39.28475  94.07989  43.94864  94.24070
      16  41.61539  94.73170         25.22711   1.979978  43.94864  94.24070  39.28475  94.07989  39.28209  95.22260  43.94596  95.38426
      16  41.61260  95.87595         25.24814   1.990322  43.94596  95.38426  39.28209  95.22260  39.27919  96.36755  43.94302  96.53005
      16  41.60955  97.02245         25.26919   2.000671  43.94302  96.53005  39.27919  96.36755  39.27602  97.51475  43.93983  97.67809
      16  41.60624  98.17120         25.29025   2.011027  43.93983  97.67809  39.27602  97.51475  39.27260  98.66420  43.93638  98.82839
      16  41.60267  99.32219         25.31134   2.021388  43.93638  98.82839  39.27260  98.66420  39.26892  99.81591  43.93267  99.98093
      16  41.59885 100.47545         25.33244   2.031756  43.93267  99.98093  39.26892  99.81591  39.26498 100.96987  43.92870 101.13574
      16  41.59476 101.63096         25.35356   2.042129  43.92870 101.13574  39.26498 100.96987  39.26078 102.12609  43.92447 102.29281
      16  41.59042 102.78874         25.37470   2.052508  43.92447 102.29281  39.26078 102.12609  39.25632 103.28458  43.91998 103.45214
      16  41.58581 103.94879         25.39585   2.062892  43.91998 103.45214  39.25632 103.28458  39.25160 104.44534  43.91523 104.61374
      16  41.58095 105.11111         25.41702   2.073282  43.91523 104.61374  39.25160 104.44534  39.24662 105.60837  43.91021 105.77762
      16  41.57582 106.27570         25.43821   2.083678  43.91021 105.77762  39.24662 105.60837  39.24137 106.77368  43.90494 106.94378
      16  41.57042 107.44258         25.45942   2.094080  43.90494 106.94378  39.24137 106.77368  39.23586 107.94128  43.89940 108.11222
      16  41.56477 108.61174         25.48064   2.104487  43.89940 108.11222  39.23586 107.94128  39.23009 109.11116  43.89360 109.28295
      16  41.55885 109.78319         25.50189   2.114899  43.89360 109.28295  39.23009 109.11116  39.22406 110.28333  43.88753 110.45597
      16  41.55267 110.95693         25.52315   2.125317  43.88753 110.45597  39.22406 110.28333  39.21776 111.45780  43.88120 111.63128
      16  41.54622 112.13297         25.54443   2.135740  43.88120 111.63128  39.21776 111.45780  39.21119 112.63456  43.87460 112.80890
      16  41.53950 113.31131         25.56572   2.146169  43.87460 112.80890  39.21119 112.63456  39.20436 113.81363  43.86773 113.98881
      16  41.53252 114.49195         25.58703   2.156603  43.86773 113.98881  39.20436 113.81363  39.19726 114.99500  43.86060 115.17104
      16  41.52527 115.67491         25.60837   2.167042  43.86060 115.17104  39.19726 114.99500  39.18989 116.17869  43.85320 116.35557
      16  41.51776 116.86018         25.62972   2.177486  43.85320 116.35557  39.18989 116.17869  39.18226 117.36469  43.84554 117.54242
      16  41.50997 118.04776         25.65108   2.187935  43.84554 117.54242  39.18226 117.36469  39.17435 118.55301  43.83760 118.73160
      16  41.50192 119.23767         25.67247   2.198390  43.83760 118.73160  39.17435 118.55301  39.16618 119.74365  43.82940 119.92309
      16  41.49359 120.42990         25.69387   2.208849  43.82940 119.92309  39.16618 119.74365  39.15774 120.93662  43.82092 121.11691
      16  41.48500 121.62447         25.71529   2.219313  43.82092 121.11691  39.15774 120.93662  39.14902 122.13193  43.81217 122.31307
      16  41.47613 122.82136         25.73673   2.229783  43.81217 122.31307  39.14902 122.13193  39.14004 123.32957  43.80315 123.51156
      16  41.46699 124.02060         25.75818   2.240257  43.80315 123.51156  39.14004 123.32957  39.13078 124.52955  43.79386 124.71239
      16  41.45758 125.22218         25.77966   2.250735  43.79386 124.71239  39.13078 124.52955  39.12125 125.73187  43.78430 125.91557
      16  41.44790 126.42610         25.80115   2.261219  43.78430 125.91557  39.12125 125.73187  39.11144 126.93655  43.77446 127.12110
      16  41.43794 127.63238         25.82266   2.271707  43.77446 127.12110  39.11144 126.93655  39.10137 128.14357  43.76435 128.32898
      15  51.92873   0.02767         24.93450   2.089836  54.24774  -0.36622  49.58416  -0.53596  49.60969   0.42141  54.27323   0.59202
      15  51.95416   0.98644         24.95529   2.100589  54.27323   0.59202  49.60969   0.42141  49.63505   1.38069  54.29857   1.55218
      15  51.97943   1.94711         24.97609   2.111356  54.29857   1.55218  49.63505   1.38069  49.66026   2.34189  54.32374   2.51425
      15  52.00454   2.90971         24.99692   2.122134  54.32374   2.51425  49.66026   2.34189  49.68531   3.30500  54.34876   3.47824
      15  52.02949   3.87422         25.01775   2.132926  54.34876   3.47824  49.68531   3.30500  49.71020   4.27003  54.37362   4.44415
      15  52.05429   4.84065         25.03861   2.143729  54.37362   4.44415  49.71020   4.27003  49.73493   5.23699  54.39831   5.41199
      15  52.07892   5.80901         25.05949   2.154545  54.39831   5.41199  49.73493   5.23699  49.75950   6.20587  54.42285   6.38175
      15  52.10339   6.77930         25.08038   2.165374  54.42285   6.38175  49.75950   6.20587  49.78390   7.17668  54.44722   7.35345
      15  52.12770   7.75152         25.10129   2.176215  54.44722   7.35345  49.78390   7.17668  49.80815   8.14943  54.47143   8.32708
      15  52.15185   8.72568         25.12221   2.187068  54.47143   8.32708  49.80815   8.14943  49.83224   9.12412  54.49549   9.30265
      15  52.17584   9.70178         25.14316   2.197934  54.49549   9.30265  49.83224   9.12412  49.85616  10.10075  54.51937  10.28017
      15  52.19966  10.67983         25.16412   2.208812  54.51937  10.28017  49.85616  10.10075  49.87992  11.07932  54.54310  11.25963
      15  52.22332  11.65982         25.18510   2.219703  54.54310  11.25963  49.87992  11.07932  49.90351  12.05985  54.56666  12.24104
      15  52.24682  12.64176         25.20609   2.230606  54.56666  12.24104  49.90351  12.05985  49.92695  13.04232  54.59006  13.22440
      15  52.27015  13.62565         25.22711   2.241521  54.59006  13.22440  49.92695  13.04232  49.95021  14.02675  54.61329  14.20972
      15  52.29332  14.61151         25.24814   2.252449  54.61329  14.20972  49.95021  14.02675  49.97332  15.01314  54.63636  15.19699
      15  52.31633  15.59932         25.26919   2.263388  54.63636  15.19699  49.97332  15.01314  49.99626  16.00149  54.65927  16.18624
      15  52.33916  16.58910         25.29025   2.274341  54.65927  16.18624  49.99626  16.00149  50.01903  16.99181  54.68201  17.17745
      15  52.36184  17.58085         25.31134   2.285305  54.68201  17.17745  50.01903  16.99181  50.04164  17.98409  54.70458  18.17063
      15  52.38435  18.57457         25.33244   2.296282  54.70458  18.17063  50.04164  17.98409  50.06408  18.97835  54.72699  19.16578
      15  52.40669  19.57026         25.35356   2.307270  54.72699  19.16578  50.06408  18.97835  50.08636  19.97459  54.74922  20.16291
      15  52.42886  20.56794         25.37470   2.318271  54.74922  20.16291  50.08636  19.97459  50.10847  20.97281  54.77130  21.16202
      15  52.45087  21.56760         25.39585   2.329285  54.77130  21.16202  50.10847  20.97281  50.13041  21.97301  54.79320  22.16312
      15  52.47271  22.56924         25.41702   2.340310  54.79320  22.16312  50.13041  21.97301  50.15218  22.97520  54.81494  23.16621
      15  52.49438  23.57287         25.43821   2.351347  54.81494  23.16621  50.15218  22.97520  50.17379  23.97938  54.83651  24.17129
      15  52.51588  24.57850         25.45942   2.362397  54.83651  24.17129  50.17379  23.97938  50.19522  24.98555  54.85790  25.17836
      15  52.53721  25.58612         25.48064   2.373459  54.85790  25.17836  50.19522  24.98555  50.21649  25.99372  54.87913  26.18743
      15  52.55837  26.59574         25.50189   2.384533  54.87913  26.18743  50.21649  25.99372  50.23758  27.00390  54.90019  27.19851
      15  52.57937  27.60737         25.52315   2.395619  54.90019  27.19851  50.23758  27.00390  50.25851  28.01608  54.92108  28.21159
      15  52.60019  28.62101         25.54443   2.406716  54.92108  28.21159  50.25851  28.01608  50.27927  29.03026  54.94180  29.22668
      15  52.62084  29.63665         25.56572   2.417826  54.94180  29.22668  50.27927  29.03026  50.29985  30.04647  54.96234  30.24379
      15  52.64132  30.65432         25.58703   2.428948  54.96234  30.24379  50.29985  30.04647  50.32026  31.06468  54.98272  31.26291
      15  52.66162  31.67400         25.60837   2.440082  54.98272  31.26291  50.32026  31.06468  50.34050  32.08492  55.00292  32.28406
      15  52.68176  32.69570         25.62972   2.451228  55.00292  32.28406  50.34050  32.08492  50.36057  33.10718  55.02295  33.30722
      15  52.70172  33.71943         25.65108   2.462386  55.02295  33.30722  50.36057  33.10718  50.38047  34.13147  55.04280  34.33242
      15  52.72151  34.74519         25.67247   2.473556  55.04280  34.33242  50.38047  34.13147  50.40019  35.15779  55.06249  35.35965
      15  52.74112  35.77298         25.69387   2.484738  55.06249  35.35965  50.40019  35.15779  50.41974  36.18614  55.08199  36.38891
      15  52.76057  36.80280         25.71529   2.495932  55.08199  36.38891  50.41974  36.18614  50.43911  37.21654  55.10133  37.42022
      15  52.77983  37.83467         25.73673   2.507137  55.10133  37.42022  50.43911  37.21654  50.45831  38.24897  55.12049  38.45356
      15  52.79892  38.86859         25.75818   2.518355  55.12049  38.45356  50.45831  38.24897  50.47733  39.28345  55.13947  39.48896
      15  52.81784  39.90455         25.77966   2.529584  55.13947  39.48896  50.47733  39.28345  50.49618  40.31998  55.15828  40.52640
      15  52.83658  40.94256         25.80115   2.540825  55.15828  40.52640  50.49618  40.31998  50.51485  41.35856  55.17691  41.56589
      15  52.85514  41.98263         25.82266   2.552078  55.17691  41.56589  50.51485  41.35856  50.53334  42.39920  55.19536  42.60745
      15  52.87352  43.02475         25.84419   2.563342  55.19536  42.60745  50.53334  42.39920  50.55166  43.44189  55.21363  43.65106
      15  52.89173  44.06894         25.86573   2.574618  55.21363  43.65106  50.55166  43.44189  50.56980  44.48666  55.23173  44.69674
      15  52.90976  45.11520         25.88730   2.585906  55.23173  44.69674  50.56980  44.48666  50.58776  45.53349  55.24965  45.74449
      15  52.92761  46.16352         25.90888   2.597206  55.24965  45.74449  50.58776  45.53349  50.60554  46.58239  55.26739  46.79431
      15  52.94528  47.21392         25.93048   2.608517  55.26739  46.79431  50.60554  46.58239  50.62314  47.63336  55.28495  47.84621
      15  52.96278  48.26640         25.95210   2.619841  55.28495  47.84621  50.62314  47.63336  50.64057  48.68642  55.30234  48.90019
      15  52.98009  49.32095         25.97373   2.631175  55.30234  48.90019  50.64057  48.68642  50.65781  49.74156  55.31954  49.95625
      15  52.99722  50.37760         25.99539   2.642521  55.31954  49.95625  50.65781  49.74156  50.67488  50.79878  55.33656  51.01440
      15  53.01417  51.43633         26.01706   2.653879  55.33656  51.01440  50.67488  50.79878  50.69176  51.85810  55.35340  52.07464
      15  53.03094  52.49715         26.03875   2.665249  55.35340  52.07464  50.69176  51.85810  50.70846  52.91951  55.37006  53.13697
      15  53.04753  53.56007         26.06046   2.676629  55.37006  53.13697  50.70846  52.91951  50.72498  53.98301  55.38653  54.20140
      15  53.06394  54.62509         26.08218   2.688022  55.38653  54.20140  50.72498  53.98301  50.74131  55.04862  55.40282  55.26794
      15  53.08016  55.69222         26.10393   2.699426  55.40282  55.26794  50.74131  55.04862  50.75747  56.11633  55.41893  56.33658
      15  53.09620  56.76145         26.12569   2.710841  55.41893  56.33658  50.75747  56.11633  50.77344  57.18616  55.43486  57.40733
      15  53.11206  57.83279         26.14747   2.722268  55.43486  57.40733  50.77344  57.18616  50.78923  58.25809  55.45060  58.48020
      15  53.12773  58.90625         26.16927   2.733706  55.45060  58.48020  50.78923  58.25809  50.80483  59.33214  55.46616  59.55518
      15  53.14322  59.98183         26.19109   2.745155  55.46616  59.55518  50.80483  59.33214  50.82024  60.40831  55.48153  60.63228
      15  53.15852  61.05953         26.21292   2.756616  55.48153  60.63228  50.82024  60.40831  50.83548  61.48661  55.49672  61.71151
      15  53.17364  62.13935         26.23477   2.768088  55.49672  61.71151  50.83548  61.48661  50.85052  62.56703  55.51172  62.79287
      15  53.18857  63.22131         26.25665   2.779572  55.51172  62.79287  50.85052  62.56703  50.86538  63.64959  55.52654  63.87636
      15  53.20331  64.30540         26.27853   2.791067  55.52654  63.87636  50.86538  63.64959  50.88006  64.73428  55.54116  64.96199
      15  53.21787  65.39163         26.30044   2.802573  55.54116  64.96199  50.88006  64.73428  50.89454  65.82111  55.55560  66.04976
      15  53.23224  66.48000         26.32237   2.814090  55.55560  66.04976  50.89454  65.82111  50.90884  66.91009  55.56986  67.13967
      15  53.24642  67.57052         26.34431   2.825618  55.56986  67.13967  50.90884  66.91009  50.92295  68.00121  55.58392  68.23173
      15  53.26041  68.66319         26.36628   2.837158  55.58392  68.23173  50.92295  68.00121  50.93687  69.09448  55.59779  69.32594
      15  53.27421  69.75801         26.38826   2.848709  55.59779  69.32594  50.93687  69.09448  50.95060  70.18991  55.61148  70.42231
      15  53.28783  70.85498         26.41026   2.860270  55.61148  70.42231  50.95060  70.18991  50.96415  71.28750  55.62498  71.52084
      15  53.30125  71.95412         26.43227   2.871843  55.62498  71.52084  50.96415  71.28750  50.97750  72.38725  55.63828  72.62153
      15  53.31448  73.05543         26.45431   2.883427  55.63828  72.62153  50.97750  72.38725  50.99066  73.48916  55.65139  73.72439
      15  53.32753  74.15890         26.47636   2.895022  55.65139  73.72439  50.99066  73.48916  51.00363  74.59325  55.66432  74.82942
      15  53.34038  75.26454         26.49844   2.906628  55.66432  74.82942  51.00363  74.59325  51.01641  75.69951  55.67705  75.93662
      15  53.35304  76.37237         26.52053   2.918245  55.67705  75.93662  51.01641  75.69951  51.02900  76.80795  55.68959  77.04601
      15  53.36550  77.48237         26.54264   2.929873  55.68959  77.04601  51.02900  76.80795  51.04139  77.91857  55.70193  78.15758
      15  53.37777  78.59456         26.56477   2.941512  55.70193  78.15758  51.04139  77.91857  51.05359  79.03138  55.71408  79.27133
      15  53.38985  79.70893         26.58691   2.953162  55.71408  79.27133  51.05359  79.03138  51.06560  80.14638  55.72604  80.38728
      15  53.40174  80.82550         26.60908   2.964822  55.72604  80.38728  51.06560  80.14638  51.07741  81.26357  55.73781  81.50542
      15  53.41343  81.94427         26.63126   2.976493  55.73781  81.50542  51.07741  81.26357  51.08903  82.38296  55.74937  82.62576
      15  53.42493  83.06523         26.65346   2.988176  55.74937  82.62576  51.08903  82.38296  51.10045  83.50455  55.76075  83.74830
      15  53.43623  84.18840         26.67568   2.999868  55.76075  83.74830  51.10045  83.50455  51.11168  84.62835  55.77193  84.87305
      15  53.44733  85.31378         26.69792   3.011572  55.77193  84.87305  51.11168  84.62835  51.12271  85.75436  55.78291  86.00001
      15  53.45824  86.44137         26.72018   3.023286  55.78291  86.00001  51.12271  85.75436  51.13354  86.88258  55.79369  87.12918
      15  53.46895  87.57118         26.74246   3.035011  55.79369  87.12918  51.13354  86.88258  51.14418  88.01302  55.80428  88.26058
      15  53.47946  88.70321         26.76475   3.046747  55.80428  88.26058  51.14418  88.01302  51.15462  89.14568  55.81467  89.39419
      15  53.48978  89.83746         26.78706   3.058493  55.81467  89.39419  51.15462  89.14568  51.16486  90.28056  55.82486  90.53003
      15  53.49989  90.97393         26.80940   3.070250  55.82486  90.53003  51.16486  90.28056  51.17490  91.41768  55.83485  91.66811
      15  53.50981  92.11265         26.83175   3.082017  55.83485  91.66811  51.17490  91.41768  51.18475  92.55703  55.84464  92.80841
      15  53.51953  93.25359         26.85412   3.093795  55.84464  92.80841  51.18475  92.55703  51.19439  93.69862  55.85423  93.95096
      15  53.52905  94.39678         26.87650   3.105583  55.85423  93.95096  51.19439  93.69862  51.20383  94.84245  55.86362  95.09575
      15  53.53836  95.54221         26.89891   3.117382  55.86362  95.09575  51.20383  94.84245  51.21308  95.98852  55.87281  96.24278
      15  53.54748  96.68989         26.92134   3.129191  55.87281  96.24278  51.21308  95.98852  51.22212  97.13684  55.88180  97.39207
      15  53.55639  97.83982         26.94378   3.141010  55.88180  97.39207  51.22212  97.13684  51.23096  98.28742  55.89059  98.54361
      15  53.56510  98.99201         26.96624   3.152840  55.89059  98.54361  51.23096  98.28742  51.23959  99.44026  55.89917  99.69741
      15  53.57361 100.14646         26.98872   3.164680  55.89917  99.69741  51.23959  99.44026  51.24803 100.59536  55.90755 100.85347
      15  53.58192 101.30317         27.01122   3.176531  55.90755 100.85347  51.24803 100.59536  51.25626 101.75272  55.91573 102.01180
      15  53.59002 102.46215         27.03374   3.188391  55.91573 102.01180  51.25626 101.75272  51.26429 102.91236  55.92370 103.17240
      15  53.59792 103.62341         27.05628   3.200262  55.92370 103.17240  51.26429 102.91236  51.27211 104.07426  55.93147 104.33527
      15  53.60561 104.78694         27.07884   3.212143  55.93147 104.33527  51.27211 104.07426  51.27973 105.23845  55.93903 105.50042
      15  53.61310 105.95275         27.10141   3.224034  55.93903 105.50042  51.27973 105.23845  51.28714 106.40492  55.94639 106.66786
      15  53.62038 107.12084         27.12400   3.235935  55.94639 106.66786  51.28714 106.40492  51.29434 107.57368  55.95354 107.83758
      15  53.62746 108.29123         27.14662   3.247847  55.95354 107.83758  51.29434 107.57368  51.30134 108.74472  55.96049 109.00960
      15  53.63432 109.46391         27.16925   3.259768  55.96049 109.00960  51.30134 108.74472  51.30814 109.91806  55.96722 110.18391
      15  53.64099 110.63888         27.19190   3.271699  55.96722 110.18391  51.30814 109.91806  51.31472 111.09370  55.97375 111.36052
      15  53.64744 111.81616         27.21457   3.283640  55.97375 111.36052  51.31472 111.09370  51.32110 112.27164  55.98008 112.53943
      15  53.65368 112.99574         27.23726   3.295591  55.98008 112.53943  51.32110 112.27164  51.32727 113.45189  55.98619 113.72065
      15  53.65972 114.17763         27.25996   3.307552  55.98619 113.72065  51.32727 113.45189  51.33323 114.63445  55.99209 114.90418
      15  53.66555 115.36183         27.28269   3.319523  55.99209 114.90418  51.33323 114.63445  51.33897 115.81932  55.99778 116.09003
      15  53.67116 116.54835         27.30544   3.331504  55.99778 116.09003  51.33897 115.81932  51.34451 117.00652  56.00327 117.27820
      15  53.67657 117.73720         27.32820   3.343494  56.00327 117.27820  51.34451 117.00652  51.34984 118.19604  56.00854 118.46869
      15  53.68176 118.92836         27.35098   3.355494  56.00854 118.46869  51.34984 118.19604  51.35496 119.38788  56.01360 119.66151
      15  53.68674 120.12186         27.37378   3.367504  56.01360 119.66151  51.35496 119.38788  51.35986 120.58206  56.01844 120.85667
      15  53.69151 121.31770         27.39661   3.379523  56.01844 120.85667  51.35986 120.58206  51.36456 121.77857  56.02308 122.05416
      15  53.69607 122.51587         27.41945   3.391552  56.02308 122.05416  51.36456 121.77857  51.36904 122.97743  56.02750 123.25399
      15  53.70042 123.71638         27.44230   3.403591  56.02750 123.25399  51.36904 122.97743  51.37330 124.17862  56.03171 124.45617
      15  53.70455 124.91925         27.46518   3.415639  56.03171 124.45617  51.37330 124.17862  51.37736 125.38217  56.03570 125.66069
      15  53.70846 126.12446         27.48808   3.427697  56.03570 125.66069  51.37736 125.38217  51.38119 126.58807  56.03948 126.86757
      15  53.71216 127.33203         27.51100   3.439764  56.03948 126.86757  51.38119 126.58807  51.38482 127.79633  56.04305 128.07681
      14  64.47289   0.60651         26.69792   3.263153  66.78551   0.25887  62.12638  -0.00628  62.16026   0.95394  66.81933   1.22006
      14  64.50668   1.56817         26.72018   3.275251  66.81933   1.22006  62.16026   0.95394  62.19402   1.91607  66.85304   2.18318
      14  64.54037   2.53176         26.74246   3.287365  66.85304   2.18318  62.19402   1.91607  62.22769   2.88012  66.88665   3.14822
      14  64.57395   3.49727         26.76475   3.299495  66.88665   3.14822  62.22769   2.88012  62.26124   3.84611  66.92015   4.11519
      14  64.60742   4.46471         26.78706   3.311639  66.92015   4.11519  62.26124   3.84611  62.29469   4.81402  66.95354   5.08409
      14  64.64079   5.43408         26.80940   3.323799  66.95354   5.08409  62.29469   4.81402  62.32803   5.78387  66.98682   6.05493
      14  64.67405   6.40540         26.83175   3.335974  66.98682   6.05493  62.32803   5.78387  62.36127   6.75565  67.02000   7.02770
      14  64.70720   7.37865         26.85412   3.348165  67.02000   7.02770  62.36127   6.75565  62.39439   7.72938  67.05307   8.00242
      14  64.74024   8.35384         26.87650   3.360371  67.05307   8.00242  62.39439   7.72938  62.42741   8.70505  67.08603   8.97908
      14  64.77318   9.33098         26.89891   3.372592  67.08603   8.97908  62.42741   8.70505  62.46032   9.68266  67.11888   9.95770
      14  64.80600  10.31007         26.92134   3.384829  67.11888   9.95770  62.46032   9.68266  62.49312  10.66223  67.15162  10.93826
      14  64.83872  11.29112         26.94378   3.397081  67.15162  10.93826  62.49312  10.66223  62.52581  11.64376  67.18425  11.92078
      14  64.87132  12.27412         26.96624   3.409348  67.18425  11.92078  62.52581  11.64376  62.55840  12.62724  67.21677  12.90526
      14  64.90382  13.25908         26.98872   3.421631  67.21677  12.90526  62.55840  12.62724  62.59087  13.61269  67.24919  13.89171
      14  64.93621  14.24601         27.01122   3.433928  67.24919  13.89171  62.59087  13.61269  62.62323  14.60010  67.28149  14.88012
      14  64.96849  15.23491         27.03374   3.446241  67.28149  14.88012  62.62323  14.60010  62.65548  15.58948  67.31368  15.87050
      14  65.00065  16.22578         27.05628   3.458570  67.31368  15.87050  62.65548  15.58948  62.68762  16.58083  67.34576  16.86286
      14  65.03271  17.21862         27.07884   3.470913  67.34576  16.86286  62.68762  16.58083  62.71965  17.57416  67.37773  17.85719
      14  65.06465  18.21344         27.10141   3.483272  67.37773  17.85719  62.71965  17.57416  62.75157  18.56947  67.40959  18.85351
      14  65.09648  19.21024         27.12400   3.495646  67.40959  18.85351  62.75157  18.56947  62.78338  19.56677  67.44133  19.85181
      14  65.12820  20.20903         27.14662   3.508035  67.44133  19.85181  62.78338  19.56677  62.81507  20.56605  67.47296  20.85210
      14  65.15981  21.20981         27.16925   3.520439  67.47296  20.85210  62.81507  20.56605  62.84665  21.56732  67.50448  21.85438
      14  65.19131  22.21259         27.19190   3.532858  67.50448  21.85438  62.84665  21.56732  62.87812  22.57058  67.53589  22.85865
      14  65.22269  23.21736         27.21457   3.545293  67.53589  22.85865  62.87812  22.57058  62.90948  23.57584  67.56719  23.86493
      14  65.25396  24.22413         27.23726   3.557743  67.56719  23.86493  62.90948  23.57584  62.94072  24.58311  67.59837  24.87320
      14  65.28511  25.23290         27.25996   3.570208  67.59837  24.87320  62.94072  24.58311  62.97185  25.59238  67.62943  25.88349
      14  65.31615  26.24368         27.28269   3.582688  67.62943  25.88349  62.97185  25.59238  63.00287  26.60366  67.66038  26.89578
      14  65.34708  27.25647         27.30544   3.595183  67.66038  26.89578  63.00287  26.60366  63.03377  27.61695  67.69122  27.91009
      14  65.37789  28.27128         27.32820   3.607693  67.69122  27.91009  63.03377  27.61695  63.06456  28.63225  67.72195  28.92641
      14  65.40859  29.28810         27.35098   3.620218  67.72195  28.92641  63.06456  28.63225  63.09523  29.64958  67.75255  29.94476
      14  65.43917  30.30695         27.37378   3.632758  67.75255  29.94476  63.09523  29.64958  63.12579  30.66893  67.78304  30.96513
      14  65.46964  31.32782         27.39661   3.645314  67.78304  30.96513  63.12579  30.66893  63.15623  31.69031  67.81342  31.98752
      14  65.49999  32.35073         27.41945   3.657884  67.81342  31.98752  63.15623  31.69031  63.18655  32.71371  67.84368  33.01195
      14  65.53022  33.37566         27.44230   3.670470  67.84368  33.01195  63.18655  32.71371  63.21676  33.73915  67.87382  34.03842
      14  65.56034  34.40263         27.46518   3.683070  67.87382  34.03842  63.21676  33.73915  63.24685  34.76663  67.90385  35.06692
      14  65.59034  35.43164         27.48808   3.695686  67.90385  35.06692  63.24685  34.76663  63.27683  35.79615  67.93376  36.09747
      14  65.62022  36.46270         27.51100   3.708316  67.93376  36.09747  63.27683  35.79615  63.30669  36.82772  67.96355  37.13006
      14  65.64999  37.49580         27.53393   3.720962  67.96355  37.13006  63.30669  36.82772  63.33643  37.86133  67.99322  38.16470
      14  65.67964  38.53096         27.55689   3.733622  67.99322  38.16470  63.33643  37.86133  63.36605  38.89700  68.02278  39.20140
      14  65.70917  39.56817         27.57986   3.746297  68.02278  39.20140  63.36605  38.89700  63.39555  39.93472  68.05221  40.24015
      14  65.73858  40.60744         27.60285   3.758987  68.05221  40.24015  63.39555  39.93472  63.42494  40.97451  68.08153  41.28097
      14  65.76787  41.64877         27.62586   3.771693  68.08153  41.28097  63.42494  40.97451  63.45420  42.01635  68.11073  42.32385
      14  65.79704  42.69217         27.64890   3.784413  68.11073  42.32385  63.45420  42.01635  63.48335  43.06027  68.13981  43.36880
      14  65.82609  43.73763         27.67195   3.797147  68.13981  43.36880  63.48335  43.06027  63.51238  44.10625  68.16876  44.41582
      14  65.85503  44.78517         27.69502   3.809897  68.16876  44.41582  63.51238  44.10625  63.54128  45.15431  68.19760  45.46491
      14  65.88384  45.83479         27.71810   3.822662  68.19760  45.46491  63.54128  45.15431  63.57007  46.20445  68.22632  46.51609
      14  65.91253  46.88649         27.74121   3.835441  68.22632  46.51609  63.57007  46.20445  63.59874  47.25667  68.25492  47.56935
      14  65.94110  47.94027         27.76434   3.848235  68.25492  47.56935  63.59874  47.25667  63.62728  48.31098  68.28339  48.62470
      14  65.96955  48.99615         27.78749   3.861044  68.28339  48.62470  63.62728  48.31098  63.65571  49.36738  68.31175  49.68214
      14  65.99788  50.05411         27.81065   3.873868  68.31175  49.68214  63.65571  49.36738  63.68401  50.42587  68.33998  50.74167
      14  66.02608  51.11417         27.83384   3.886707  68.33998  50.74167  63.68401  50.42587  63.71219  51.48646  68.36809  51.80330
      14  66.05417  52.17633         27.85704   3.899560  68.36809  51.80330  63.71219  51.48646  63.74024  52.54915  68.39607  52.86704
      14  66.08213  53.24060         27.88027   3.912428  68.39607  52.86704  63.74024  52.54915  63.76818  53.61394  68.42393  53.93288
      14  66.10996  54.30697         27.90351   3.925311  68.42393  53.93288  63.76818  53.61394  63.79599  54.68084  68.45167  55.00083
      14  66.13768  55.37545         27.92677   3.938208  68.45167  55.00083  63.79599  54.68084  63.82368  55.74986  68.47929  56.07089
      14  66.16527  56.44605         27.95005   3.951120  68.47929  56.07089  63.82368  55.74986  63.85124  56.82099  68.50678  57.14308
      14  66.19273  57.51877         27.97335   3.964047  68.50678  57.14308  63.85124  56.82099  63.87868  57.89424  68.53415  58.21738
      14  66.22008  58.59361         27.99668   3.976988  68.53415  58.21738  63.87868  57.89424  63.90600  58.96962  68.56139  59.29381
      14  66.24729  59.67058         28.02002   3.989944  68.56139  59.29381  63.90600  58.96962  63.93319  60.04712  68.58851  60.37236
      14  66.27438  60.74967         28.04338   4.002914  68.58851  60.37236  63.93319  60.04712  63.96026  61.12676  68.61550  61.45305
      14  66.30135  61.83090         28.06675   4.015899  68.61550  61.45305  63.96026  61.12676  63.98720  62.20853  68.64237  62.53588
      14  66.32819  62.91427         28.09015   4.028899  68.64237  62.53588  63.98720  62.20853  64.01401  63.29244  68.66911  63.62085
      14  66.35490  63.99978         28.11357   4.041913  68.66911  63.62085  64.01401  63.29244  64.04070  64.37850  68.69572  64.70796
      14  66.38149  65.08744         28.13701   4.054942  68.69572  64.70796  64.04070  64.37850  64.06726  65.46670  68.72221  65.79722
      14  66.40795  66.17724         28.16047   4.067985  68.72221  65.79722  64.06726  65.46670  64.09370  66.55705  68.74857  66.88863
      14  66.43428  67.26920         28.18394   4.081043  68.74857  66.88863  64.09370  66.55705  64.12000  67.64955  68.77480  67.98220
      14  66.46049  68.36332         28.20744   4.094115  68.77480  67.98220  64.12000  67.64955  64.14618  68.74422  68.80090  69.07793
      14  66.48657  69.45960         28.23096   4.107201  68.80090  69.07793  64.14618  68.74422  64.17223  69.84105  68.82688  70.17582
      14  66.51252  70.55804         28.25449   4.120302  68.82688  70.17582  64.17223  69.84105  64.19816  70.94004  68.85272  71.27588
      14  66.53834  71.65865         28.27805   4.133417  68.85272  71.27588  64.19816  70.94004  64.22395  72.04120  68.87844  72.37811
      14  66.56403  72.76143         28.30162   4.146547  68.87844  72.37811  64.22395  72.04120  64.24962  73.14454  68.90403  73.48251
      14  66.58959  73.86639         28.32522   4.159691  68.90403  73.48251  64.24962  73.14454  64.27515  74.25006  68.92949  74.58910
      14  66.61502  74.97354         28.34883   4.172849  68.92949  74.58910  64.27515  74.25006  64.30056  75.35776  68.95482  75.69786
      14  66.64033  76.08286         28.37246   4.186022  68.95482  75.69786  64.30056  75.35776  64.32584  76.46764  68.98001  76.80882
      14  66.66550  77.19438         28.39612   4.199209  68.98001  76.80882  64.32584  76.46764  64.35098  77.57971  69.00508  77.92196
      14  66.69054  78.30808         28.41979   4.212410  69.00508  77.92196  64.35098  77.57971  64.37600  78.69398  69.03002  79.03731
      14  66.71545  79.42399         28.44348   4.225625  69.03002  79.03731  64.37600  78.69398  64.40088  79.81045  69.05482  80.15484
      14  66.74022  80.54209         28.46720   4.238855  69.05482  80.15484  64.40088  79.81045  64.42563  80.92912  69.07949  81.27459
      14  66.76487  81.66240         28.49093   4.252098  69.07949  81.27459  64.42563  80.92912  64.45025  82.04999  69.10403  82.39654
      14  66.78938  82.78491         28.51468   4.265356  69.10403  82.39654  64.45025  82.04999  64.47474  83.17307  69.12844  83.52070
      14  66.81376  83.90964         28.53845   4.278628  69.12844  83.52070  64.47474  83.17307  64.49909  84.29837  69.15271  84.64707
      14  66.83801  85.03659         28.56225   4.291915  69.15271  84.64707  64.49909  84.29837  64.52331  85.42588  69.17685  85.77566
      14  66.86213  86.16575         28.58606   4.305215  69.17685  85.77566  64.52331  85.42588  64.54740  86.55562  69.20086  86.90648
      14  66.88611  87.29714         28.60989   4.318529  69.20086  86.90648  64.54740  86.55562  64.57136  87.68758  69.22473  88.03952
      14  66.90995  88.43076         28.63374   4.331857  69.22473  88.03952  64.57136  87.68758  64.59518  88.82177  69.24847  89.17480
      14  66.93367  89.56660         28.65761   4.345200  69.24847  89.17480  64.59518  88.82177  64.61886  89.95819  69.27207  90.31231
      14  66.95724  90.70469         28.68150   4.358556  69.27207  90.31231  64.61886  89.95819  64.64241  91.09685  69.29554  91.45205
      14  66.98068  91.84501         28.70541   4.371926  69.29554  91.45205  64.64241  91.09685  64.66583  92.23776  69.31887  92.59404
      14  67.00399  92.98758         28.72935   4.385311  69.31887  92.59404  64.66583  92.23776  64.68911  93.38090  69.34207  93.73828
      14  67.02716  94.13240         28.75330   4.398709  69.34207  93.73828  64.68911  93.38090  64.71225  94.52630  69.36513  94.88476
      14  67.05019  95.27947         28.77727   4.412121  69.36513  94.88476  64.71225  94.52630  64.73526  95.67395  69.38805  96.03351
      14  67.07309  96.42880         28.80126   4.425547  69.38805  96.03351  64.73526  95.67395  64.75813  96.82386  69.41084  97.18451
      14  67.09585  97.58038         28.82527   4.438986  69.41084  97.18451  64.75813  96.82386  64.78086  97.97604  69.43349  98.33777
      14  67.11847  98.73423         28.84930   4.452440  69.43349  98.33777  64.78086  97.97604  64.80346  99.13047  69.45600  99.49330
      14  67.14096  99.89035         28.87335   4.465907  69.45600  99.49330  64.80346  99.13047  64.82592 100.28718  69.47837 100.65110
      14  67.16330 101.04874         28.89742   4.479388  69.47837 100.65110  64.82592 100.28718  64.84824 101.44616  69.50061 101.81118
      14  67.18551 102.20941         28.92151   4.492883  69.50061 101.81118  64.84824 101.44616  64.87042 102.60742  69.52270 102.97353
      14  67.20758 103.37236         28.94563   4.506392  69.52270 102.97353  64.87042 102.60742  64.89246 103.77096  69.54466 104.13817
      14  67.22951 104.53759         28.96976   4.519914  69.54466 104.13817  64.89246 103.77096  64.91436 104.93679  69.56647 105.30510
      14  67.25130 105.70511         28.99391   4.533450  69.56647 105.30510  64.91436 104.93679  64.93613 106.10491  69.58815 106.47432
      14  67.27295 106.87493         29.01808   4.546999  69.58815 106.47432  64.93613 106.10491  64.95775 107.27532  69.60968 107.64583
      14  67.29446 108.04704         29.04227   4.560562  69.60968 107.64583  64.95775 107.27532  64.97923 108.44803  69.63108 108.81964
      14  67.31582 109.22145         29.06648   4.574138  69.63108 108.81964  64.97923 108.44803  65.00057 109.62305  69.65233 109.99576
      14  67.33705 110.39817         29.09072   4.587729  69.65233 109.99576  65.00057 109.62305  65.02177 110.80037  69.67344 111.17418
      14  67.35813 111.57720         29.11497   4.601332  69.67344 111.17418  65.02177 110.80037  65.04283 111.98000  69.69441 112.35492
      14  67.37908 112.75854         29.13924   4.614949  69.69441 112.35492  65.04283 111.98000  65.06375 113.16194  69.71524 113.53797
      14  67.39988 113.94220         29.16353   4.628580  69.71524 113.53797  65.06375 113.16194  65.08452 114.34621  69.73592 114.72335
      14  67.42053 115.12818         29.18785   4.642223  69.73592 114.72335  65.08452 114.34621  65.10515 115.53280  69.75646 115.91104
      14  67.44105 116.31649         29.21218   4.655881  69.75646 115.91104  65.10515 115.53280  65.12564 116.72172  69.77686 117.10107
      14  67.46142 117.50713         29.23653   4.669551  69.77686 117.10107  65.12564 116.72172  65.14598 117.91297  69.79711 118.29343
      14  67.48165 118.70010         29.26091   4.683235  69.79711 118.29343  65.14598 117.91297  65.16618 119.10655  69.81722 119.48813
      14  67.50173 119.89541         29.28530   4.696932  69.81722 119.48813  65.16618 119.10655  65.18624 120.30248  69.83719 120.68516
      14  67.52167 121.09306         29.30972   4.710643  69.83719 120.68516  65.18624 120.30248  65.20615 121.50075  69.85701 121.88455
      14  67.54146 122.29306         29.33415   4.724366  69.85701 121.88455  65.20615 121.50075  65.22591 122.70136  69.87668 123.08628
      14  67.56110 123.49542         29.35861   4.738103  69.87668 123.08628  65.22591 122.70136  65.24553 123.90433  69.89621 124.29036
      14  67.58060 124.70012         29.38308   4.751853  69.89621 124.29036  65.24553 123.90433  65.26501 125.10966  69.91559 125.49681
      14  67.59996 125.90719         29.40758   4.765616  69.91559 125.49681  65.26501 125.10966  65.28434 126.31735  69.93482 126.70561
      14  67.61917 127.11662         29.43210   4.779392  69.93482 126.70561  65.28434 126.31735  65.30352 127.52740  69.95391 127.91679
      13  78.86569   2.53504         28.75330   4.641990  81.16966   2.24035  76.51825   1.86323  76.56174   2.82945  81.21305   3.20767
      13  78.90911   3.50277         28.77727   4.655553  81.21305   3.20767  76.56174   2.82945  76.60518   3.79760  81.25641   4.17693
      13  78.95248   4.47244         28.80126   4.669136  81.25641   4.17693  76.60518   3.79760  76.64858   4.76769  81.29971   5.14812
      13  78.99580   5.44405         28.82527   4.682738  81.29971   5.14812  76.64858   4.76769  76.69192   5.73972  81.34297   6.12125
      13  79.03908   6.41760         28.84930   4.696359  81.34297   6.12125  76.69192   5.73972  76.73522   6.71369  81.38618   7.09632
      13  79.08231   7.39310         28.87335   4.709999  81.38618   7.09632  76.73522   6.71369  76.77848   7.68960  81.42934   8.07335
      13  79.12550   8.37054         28.89742   4.723658  81.42934   8.07335  76.77848   7.68960  76.82168   8.66747  81.47245   9.05232
      13  79.16864   9.34994         28.92151   4.737337  81.47245   9.05232  76.82168   8.66747  76.86484   9.64728  81.51552  10.03325
      13  79.21172  10.33129         28.94563   4.751035  81.51552  10.03325  76.86484   9.64728  76.90795  10.62906  81.55854  11.01614
      13  79.25477  11.31460         28.96976   4.764752  81.55854  11.01614  76.90795  10.62906  76.95102  11.61279  81.60151  12.00099
      13  79.29776  12.29987         28.99391   4.778489  81.60151  12.00099  76.95102  11.61279  76.99403  12.59849  81.64443  12.98780
      13  79.34070  13.28711         29.01808   4.792244  81.64443  12.98780  76.99403  12.59849  77.03700  13.58616  81.68731  13.97658
      13  79.38360  14.27632         29.04227   4.806019  81.68731  13.97658  77.03700  13.58616  77.07992  14.57579  81.73013  14.96734
      13  79.42645  15.26751         29.06648   4.819813  81.73013  14.96734  77.07992  14.57579  77.12279  15.56740  81.77291  15.96007
      13  79.46925  16.26067         29.09072   4.833627  81.77291  15.96007  77.12279  15.56740  77.16561  16.56099  81.81564  16.95478
      13  79.51200  17.25581         29.11497   4.847459  81.81564  16.95478  77.16561  16.56099  77.20839  17.55656  81.85831  17.95147
      13  79.55470  18.25293         29.13924   4.861311  81.85831  17.95147  77.20839  17.55656  77.25111  18.55412  81.90094  18.95015
      13  79.59735  19.25204         29.16353   4.875182  81.90094  18.95015  77.25111  18.55412  77.29379  19.55366  81.94352  19.95082
      13  79.63995  20.25315         29.18785   4.889072  81.94352  19.95082  77.29379  19.55366  77.33641  20.55520  81.98605  20.95349
      13  79.68251  21.25625         29.21218   4.902981  81.98605  20.95349  77.33641  20.55520  77.37899  21.55873  82.02853  21.95815
      13  79.72501  22.26134         29.23653   4.916910  82.02853  21.95815  77.37899  21.55873  77.42151  22.56426  82.07096  22.96481
      13  79.76746  23.26844         29.26091   4.930858  82.07096  22.96481  77.42151  22.56426  77.46399  23.57180  82.11334  23.97348
      13  79.80986  24.27755         29.28530   4.944825  82.11334  23.97348  77.46399  23.57180  77.50642  24.58134  82.15567  24.98416
      13  79.85222  25.28866         29.30972   4.958811  82.15567  24.98416  77.50642  24.58134  77.54879  25.59289  82.19794  25.99684
      13  79.89452  26.30179         29.33415   4.972817  82.19794  25.99684  77.54879  25.59289  77.59112  26.60646  82.24017  27.01155
      13  79.93677  27.31693         29.35861   4.986842  82.24017  27.01155  77.59112  26.60646  77.63339  27.62204  82.28235  28.02827
      13  79.97897  28.33409         29.38308   5.000886  82.28235  28.02827  77.63339  27.62204  77.67562  28.63964  82.32447  29.04701
      13  80.02112  29.35328         29.40758   5.014949  82.32447  29.04701  77.67562  28.63964  77.71779  29.65927  82.36654  30.06778
      13  80.06321  30.37450         29.43210   5.029031  82.36654  30.06778  77.71779  29.65927  77.75991  30.68093  82.40856  31.09059
      13  80.10526  31.39774         29.45663   5.043133  82.40856  31.09059  77.75991  30.68093  77.80198  31.70462  82.45053  32.11542
      13  80.14725  32.42302         29.48119   5.057254  82.45053  32.11542  77.80198  31.70462  77.84400  32.73035  82.49245  33.14229
      13  80.18919  33.45034         29.50577   5.071394  82.49245  33.14229  77.84400  32.73035  77.88597  33.75811  82.53432  34.17121
      13  80.23108  34.47970         29.53037   5.085553  82.53432  34.17121  77.88597  33.75811  77.92788  34.78792  82.57613  35.20217
      13  80.27292  35.51111         29.55499   5.099731  82.57613  35.20217  77.92788  34.78792  77.96975  35.81978  82.61789  36.23517
      13  80.31471  36.54457         29.57962   5.113929  82.61789  36.23517  77.96975  35.81978  78.01156  36.85369  82.65960  37.27023
      13  80.35644  37.58008         29.60428   5.128146  82.65960  37.27023  78.01156  36.85369  78.05331  37.88965  82.70125  38.30735
      13  80.39812  38.61764         29.62897   5.142382  82.70125  38.30735  78.05331  37.88965  78.09502  38.92766  82.74285  39.34652
      13  80.43975  39.65727         29.65367   5.156637  82.74285  39.34652  78.09502  38.92766  78.13667  39.96774  82.78440  40.38776
      13  80.48132  40.69896         29.67839   5.170911  82.78440  40.38776  78.13667  39.96774  78.17827  41.00989  82.82589  41.43106
      13  80.52284  41.74272         29.70313   5.185205  82.82589  41.43106  78.17827  41.00989  78.21982  42.05410  82.86733  42.47644
      13  80.56431  42.78855         29.72789   5.199518  82.86733  42.47644  78.21982  42.05410  78.26131  43.10039  82.90872  43.52389
      13  80.60572  43.83646         29.75268   5.213849  82.90872  43.52389  78.26131  43.10039  78.30275  44.14876  82.95005  44.57341
      13  80.64708  44.88645         29.77748   5.228201  82.95005  44.57341  78.30275  44.14876  78.34413  45.19920  82.99133  45.62502
      13  80.68838  45.93852         29.80231   5.242571  82.99133  45.62502  78.34413  45.19920  78.38546  46.25173  83.03255  46.67872
      13  80.72963  46.99267         29.82715   5.256960  83.03255  46.67872  78.38546  46.25173  78.42674  47.30635  83.07372  47.73450
      13  80.77083  48.04892         29.85202   5.271369  83.07372  47.73450  78.42674  47.30635  78.46796  48.36305  83.11484  48.79238
      13  80.81197  49.10726         29.87691   5.285797  83.11484  48.79238  78.46796  48.36305  78.50913  49.42186  83.15590  49.85235
      13  80.85305  50.16770         29.90181   5.300243  83.15590  49.85235  78.50913  49.42186  78.55024  50.48276  83.19690  50.91443
      13  80.89408  51.23024         29.92674   5.314709  83.19690  50.91443  78.55024  50.48276  78.59130  51.54577  83.23785  51.97861
      13  80.93506  52.29488         29.95169   5.329195  83.23785  51.97861  78.59130  51.54577  78.63230  52.61088  83.27874  53.04490
      13  80.97598  53.36164         29.97666   5.343699  83.27874  53.04490  78.63230  52.61088  78.67325  53.67810  83.31958  54.11329
      13  81.01684  54.43051         30.00165   5.358222  83.31958  54.11329  78.67325  53.67810  78.71414  54.74744  83.36036  55.18381
      13  81.05765  55.50149         30.02666   5.372765  83.36036  55.18381  78.71414  54.74744  78.75497  55.81889  83.40108  56.25645
      13  81.09840  56.57460         30.05170   5.387327  83.40108  56.25645  78.75497  55.81889  78.79575  56.89247  83.44175  57.33120
      13  81.13909  57.64983         30.07675   5.401908  83.44175  57.33120  78.79575  56.89247  78.83647  57.96817  83.48236  58.40809
      13  81.17973  58.72719         30.10182   5.416507  83.48236  58.40809  78.83647  57.96817  78.87714  59.04600  83.52291  59.48711
      13  81.22031  59.80668         30.12692   5.431126  83.52291  59.48711  78.87714  59.04600  78.91775  60.12597  83.56341  60.56826
      13  81.26084  60.88831         30.15204   5.445765  83.56341  60.56826  78.91775  60.12597  78.95830  61.20807  83.60385  61.65155
      13  81.30131  61.97207         30.17717   5.460422  83.60385  61.65155  78.95830  61.20807  78.99880  62.29232  83.64423  62.73698
      13  81.34172  63.05798         30.20233   5.475098  83.64423  62.73698  78.99880  62.29232  79.03924  63.37870  83.68456  63.82456
      13  81.38207  64.14604         30.22751   5.489793  83.68456  63.82456  79.03924  63.37870  79.07962  64.46724  83.72482  64.91429
      13  81.42237  65.23625         30.25271   5.504508  83.72482  64.91429  79.07962  64.46724  79.11994  65.55793  83.76503  66.00617
      13  81.46260  66.32862         30.27793   5.519241  83.76503  66.00617  79.11994  65.55793  79.16021  66.65078  83.80518  67.10022
      13  81.50278  67.42314         30.30317   5.533994  83.80518  67.10022  79.16021  66.65078  79.20042  67.74579  83.84528  68.19642
      13  81.54290  68.51983         30.32844   5.548766  83.84528  68.19642  79.20042  67.74579  79.24057  68.84296  83.88531  69.29479
      13  81.58297  69.61869         30.35372   5.563556  83.88531  69.29479  79.24057  68.84296  79.28066  69.94230  83.92528  70.39533
      13  81.62297  70.71971         30.37903   5.578366  83.92528  70.39533  79.28066  69.94230  79.32069  71.04381  83.96520  71.49804
      13  81.66291  71.82291         30.40435   5.593195  83.96520  71.49804  79.32069  71.04381  79.36067  72.14750  84.00506  72.60293
      13  81.70280  72.92829         30.42970   5.608042  84.00506  72.60293  79.36067  72.14750  79.40058  73.25336  84.04485  73.71000
      13  81.74263  74.03585         30.45507   5.622909  84.04485  73.71000  79.40058  73.25336  79.44044  74.36141  84.08459  74.81926
      13  81.78239  75.14560         30.48046   5.637795  84.08459  74.81926  79.44044  74.36141  79.48023  75.47165  84.12427  75.93071
      13  81.82210  76.25754         30.50587   5.652699  84.12427  75.93071  79.48023  75.47165  79.51997  76.58408  84.16388  77.04435
      13  81.86175  77.37167         30.53130   5.667623  84.16388  77.04435  79.51997  76.58408  79.55965  77.69871  84.20344  78.16018
      13  81.90133  78.48801         30.55676   5.682566  84.20344  78.16018  79.55965  77.69871  79.59926  78.81554  84.24294  79.27822
      13  81.94086  79.60654         30.58223   5.697527  84.24294  79.27822  79.59926  78.81554  79.63882  79.93457  84.28237  80.39847
      13  81.98032  80.72728         30.60773   5.712508  84.28237  80.39847  79.63882  79.93457  79.67832  81.05580  84.32175  81.52092
      13  82.01973  81.85023         30.63324   5.727508  84.32175  81.52092  79.67832  81.05580  79.71775  82.17925  84.36106  82.64558
      13  82.05907  82.97539         30.65878   5.742526  84.36106  82.64558  79.71775  82.17925  79.75713  83.30492  84.40031  83.77246
      13  82.09836  84.10278         30.68434   5.757564  84.40031  83.77246  79.75713  83.30492  79.79644  84.43280  84.43950  84.90157
      13  82.13758  85.23238         30.70992   5.772620  84.43950  84.90157  79.79644  84.43280  79.83569  85.56291  84.47863  86.03289
      13  82.17674  86.36421         30.73552   5.787695  84.47863  86.03289  79.83569  85.56291  79.87488  86.69524  84.51770  87.16645
      13  82.21584  87.49827         30.76115   5.802789  84.51770  87.16645  79.87488  86.69524  79.91401  87.82981  84.55670  88.30224
      13  82.25487  88.63457         30.78679   5.817902  84.55670  88.30224  79.91401  87.82981  79.95308  88.96661  84.59565  89.44027
      13  82.29384  89.77310         30.81246   5.833034  84.59565  89.44027  79.95308  88.96661  79.99208  90.10565  84.63452  90.58053
      13  82.33276  90.91388         30.83815   5.848185  84.63452  90.58053  79.99208  90.10565  80.03103  91.24693  84.67334  91.72305
      13  82.37160  92.05690         30.86386   5.863355  84.67334  91.72305  80.03103  91.24693  80.06991  92.39046  84.71210  92.86781
      13  82.41039  93.20217         30.88959   5.878543  84.71210  92.86781  80.06991  92.39046  80.10872  93.53625  84.75079  94.01482
      13  82.44911  94.34970         30.91534   5.893750  84.75079  94.01482  80.10872  93.53625  80.14748  94.68428  84.78941  95.16409
      13  82.48777  95.49948         30.94111   5.908976  84.78941  95.16409  80.14748  94.68428  80.18617  95.83458  84.82798  96.31563
      13  82.52637  96.65153         30.96691   5.924221  84.82798  96.31563  80.18617  95.83458  80.22480  96.98714  84.86648  97.46942
      13  82.56490  97.80584         30.99272   5.939485  84.86648  97.46942  80.22480  96.98714  80.26336  98.14197  84.90491  98.62549
      13  82.60337  98.96243         31.01856   5.954767  84.90491  98.62549  80.26336  98.14197  80.30186  99.29907  84.94328  99.78383
      13  82.64177 100.12129         31.04442   5.970069  84.94328  99.78383  80.30186  99.29907  80.34030 100.45845  84.98159 100.94445
      13  82.68011 101.28242         31.07030   5.985389  84.98159 100.94445  80.34030 100.45845  80.37867 101.62011  85.01983 102.10735
      13  82.71839 102.44584         31.09620   6.000728  85.01983 102.10735  80.37867 101.62011  80.41698 102.78405  85.05801 103.27253
      13  82.75660 103.61155         31.12213   6.016085  85.05801 103.27253  80.41698 102.78405  80.45522 103.95028  85.09612 104.44000
      13  82.79474 104.77955         31.14808   6.031461  85.09612 104.44000  80.45522 103.95028  80.49340 105.11880  85.13417 105.60977
      13  82.83282 105.94984         31.17404   6.046856  85.13417 105.60977  80.49340 105.11880  80.53151 106.28962  85.17215 106.78184
      13  82.87083 107.12243         31.20003   6.062270  85.17215 106.78184  80.53151 106.28962  80.56956 107.46274  85.21006 107.95621
      13  82.90878 108.29733         31.22604   6.077702  85.21006 107.95621  80.56956 107.46274  80.60754 108.63816  85.24791 109.13288
      13  82.94667 109.47453         31.25208   6.093153  85.24791 109.13288  80.60754 108.63816  80.64546 109.81589  85.28570 110.31186
      13  82.98448 110.65405         31.27813   6.108623  85.28570 110.31186  80.64546 109.81589  80.68331 110.99594  85.32341 111.49316
      13  83.02223 111.83588         31.30421   6.124111  85.32341 111.49316  80.68331 110.99594  80.72110 112.17830  85.36106 112.67678
      13  83.05992 113.02003         31.33030   6.139618  85.36106 112.67678  80.72110 112.17830  80.75881 113.36298  85.39865 113.86272
      13  83.09753 114.20650         31.35642   6.155143  85.39865 113.86272  80.75881 113.36298  80.79647 114.54999  85.43616 115.05099
      13  83.13509 115.39530         31.38256   6.170687  85.43616 115.05099  80.79647 114.54999  80.83405 115.73933  85.47361 116.24158
      13  83.17257 116.58644         31.40873   6.186250  85.47361 116.24158  80.83405 115.73933  80.87157 116.93100  85.51099 117.43452
      13  83.20998 117.77991         31.43491   6.201831  85.51099 117.43452  80.87157 116.93100  80.90902 118.12501  85.54831 118.62979
      13  83.24733 118.97572         31.46112   6.217431  85.54831 118.62979  80.90902 118.12501  80.94640 119.32136  85.58555 119.82740
      13  83.28461 120.17388         31.48735   6.233049  85.58555 119.82740  80.94640 119.32136  80.98372 120.52006  85.62273 121.02737
      13  83.32182 121.37439         31.51360   6.248686  85.62273 121.02737  80.98372 120.52006  81.02096 121.72111  85.65984 122.22968
      13  83.35897 122.57725         31.53987   6.264341  85.65984 122.22968  81.02096 121.72111  81.05814 122.92451  85.69688 123.43435
      13  83.39604 123.78246         31.56616   6.280015  85.69688 123.43435  81.05814 122.92451  81.09525 124.13028  85.73385 124.64139
      13  83.43305 124.99004         31.59248   6.295707  85.73385 124.64139  81.09525 124.13028  81.13230 125.33840  85.77075 125.85078
      13  83.46999 126.19999         31.61882   6.311417  85.77075 125.85078  81.13230 125.33840  81.16927 126.54889  85.80758 127.06255
      13  83.50686 127.41230         31.64518   6.327146  85.80758 127.06255  81.16927 126.54889  81.20617 127.76176  85.84434 128.27669
      12  95.40707   1.20114         31.04442   6.193444  97.69939   0.96925  93.05989   0.46640  93.11482   1.43271  97.75418   1.93679
      12  95.46194   2.16904         31.07030   6.208645  97.75418   1.93679  93.11482   1.43271  93.16976   2.40095  97.80899   2.90627
      12  95.51683   3.13887         31.09620   6.223869  97.80899   2.90627  93.16976   2.40095  93.22473   3.37114  97.86383   3.87768
      12  95.57174   4.11064         31.12213   6.239114  97.86383   3.87768  93.22473   3.37114  93.27972   4.34326  97.91868   4.85104
      12  95.62668   5.08435         31.14808   6.254381  97.91868   4.85104  93.27972   4.34326  93.33474   5.31732  97.97356   5.82634
      12  95.68164   6.06000         31.17404   6.269670  97.97356   5.82634  93.33474   5.31732  93.38978   6.29333  98.02847   6.80359
      12  95.73663   7.03761         31.20003   6.284982  98.02847   6.80359  93.38978   6.29333  93.44485   7.27129  98.08340   7.78279
      12  95.79163   8.01716         31.22604   6.300315  98.08340   7.78279  93.44485   7.27129  93.49993   8.25120  98.13835   8.76394
      12  95.84666   8.99868         31.25208   6.315669  98.13835   8.76394  93.49993   8.25120  93.55504   9.23307  98.19332   9.74706
      12  95.90172   9.98215         31.27813   6.331046  98.19332   9.74706  93.55504   9.23307  93.61018  10.21690  98.24832  10.73213
      12  95.95680  10.96758         31.30421   6.346445  98.24832  10.73213  93.61018  10.21690  93.66534  11.20270  98.30334  11.71917
      12  96.01190  11.95498         31.33030   6.361866  98.30334  11.71917  93.66534  11.20270  93.72052  12.19046  98.35838  12.70818
      12  96.06702  12.94436         31.35642   6.377308  98.35838  12.70818  93.72052  12.19046  93.77573  13.18019  98.41344  13.69917
      12  96.12217  13.93570         31.38256   6.392773  98.41344  13.69917  93.77573  13.18019  93.83095  14.17190  98.46853  14.69213
      12  96.17734  14.92902         31.40873   6.408259  98.46853  14.69213  93.83095  14.17190  93.88621  15.16558  98.52364  15.68707
      12  96.23253  15.92433         31.43491   6.423768  98.52364  15.68707  93.88621  15.16558  93.94148  16.16125  98.57878  16.68399
      12  96.28775  16.92161         31.46112   6.439298  98.57878  16.68399  93.94148  16.16125  93.99678  17.15890  98.63394  17.68290
      12  96.34299  17.92089         31.48735   6.454851  98.63394  17.68290  93.99678  17.15890  94.05210  18.15854  98.68912  18.68380
      12  96.39825  18.92216         31.51360   6.470425  98.68912  18.68380  94.05210  18.15854  94.10745  19.16017  98.74432  19.68669
      12  96.45354  19.92542         31.53987   6.486021  98.74432  19.68669  94.10745  19.16017  94.16282  20.16380  98.79955  20.69158
      12  96.50885  20.93068         31.56616   6.501639  98.79955  20.69158  94.16282  20.16380  94.21821  21.16943  98.85479  21.69848
      12  96.56418  21.93794         31.59248   6.517279  98.85479  21.69848  94.21821  21.16943  94.27363  22.17706  98.91007  22.70738
      12  96.61953  22.94721         31.61882   6.532941  98.91007  22.70738  94.27363  22.17706  94.32907  23.18670  98.96536  23.71828
      12  96.67491  23.95849         31.64518   6.548625  98.96536  23.71828  94.32907  23.18670  94.38453  24.19835  99.02068  24.73120
      12  96.73031  24.97178         31.67156   6.564331  99.02068  24.73120  94.38453  24.19835  94.44002  25.21201  99.07602  25.74614
      12  96.78574  25.98709         31.69796   6.580059  99.07602  25.74614  94.44002  25.21201  94.49553  26.22769  99.13138  26.76309
      12  96.84118  27.00441         31.72439   6.595809  99.13138  26.76309  94.49553  26.22769  94.55106  27.24540  99.18676  27.78207
      12  96.89666  28.02377         31.75084   6.611581  99.18676  27.78207  94.55106  27.24540  94.60661  28.26512  99.24217  28.80307
      12  96.95215  29.04515         31.77731   6.627375  99.24217  28.80307  94.60661  28.26512  94.66219  29.28688  99.29760  29.82611
      12  97.00766  30.06856         31.80380   6.643191  99.29760  29.82611  94.66219  29.28688  94.71780  30.31067  99.35306  30.85117
      12  97.06320  31.09400         31.83031   6.659028  99.35306  30.85117  94.71780  30.31067  94.77342  31.33649  99.40853  31.87828
      12  97.11877  32.12149         31.85685   6.674888  99.40853  31.87828  94.77342  31.33649  94.82907  32.36435  99.46403  32.90743
      12  97.17435  33.15102         31.88341   6.690770  99.46403  32.90743  94.82907  32.36435  94.88474  33.39426  99.51955  33.93862
      12  97.22996  34.18259         31.90999   6.706673  99.51955  33.93862  94.88474  33.39426  94.94044  34.42621  99.57509  34.97186
      12  97.28559  35.21621         31.93659   6.722599  99.57509  34.97186  94.94044  34.42621  94.99615  35.46022  99.63066  36.00715
      12  97.34124  36.25189         31.96322   6.738546  99.63066  36.00715  94.99615  35.46022  95.05190  36.49628  99.68625  37.04450
      12  97.39692  37.28962         31.98986   6.754516  99.68625  37.04450  95.05190  36.49628  95.10766  37.53439  99.74186  38.08391
      12  97.45262  38.32942         32.01653   6.770507  99.74186  38.08391  95.10766  37.53439  95.16345  38.57457  99.79749  39.12539
      12  97.50834  39.37128         32.04323   6.786521  99.79749  39.12539  95.16345  38.57457  95.21926  39.61682  99.85315  40.16893
      12  97.56408  40.41520         32.06994   6.802556  99.85315  40.16893  95.21926  39.61682  95.27509  40.66113  99.90883  41.21454
      12  97.61985  41.46120         32.09668   6.818613  99.90883  41.21454  95.27509  40.66113  95.33095  41.70752  99.96453  42.26222
      12  97.67564  42.50928         32.12343   6.834692  99.96453  42.26222  95.33095  41.70752  95.38683  42.75598 100.02025  43.31199
      12  97.73145  43.55943         32.15021   6.850794 100.02025  43.31199  95.38683  42.75598  95.44273  43.80652 100.07600  44.36384
      12  97.78729  44.61167         32.17702   6.866917 100.07600  44.36384  95.44273  43.80652  95.49865  44.85915 100.13176  45.41777
      12  97.84315  45.66599         32.20384   6.883062 100.13176  45.41777  95.49865  44.85915  95.55460  45.91387 100.18755  46.47379
      12  97.89903  46.72241         32.23069   6.899229 100.18755  46.47379  95.55460  45.91387  95.61057  46.97068 100.24337  47.53191
      12  97.95493  47.78092         32.25756   6.915418 100.24337  47.53191  95.61057  46.97068  95.66656  48.02958 100.29920  48.59212
      12  98.01085  48.84153         32.28445   6.931628 100.29920  48.59212  95.66656  48.02958  95.72258  49.09058 100.35506  49.65443
      12  98.06680  49.90424         32.31137   6.947861 100.35506  49.65443  95.72258  49.09058  95.77862  50.15369 100.41094  50.71885
      12  98.12277  50.96905         32.33831   6.964116 100.41094  50.71885  95.77862  50.15369  95.83468  51.21890 100.46684  51.78538
      12  98.17877  52.03598         32.36527   6.980393 100.46684  51.78538  95.83468  51.21890  95.89077  52.28622 100.52276  52.85402
      12  98.23478  53.10501         32.39225   6.996691 100.52276  52.85402  95.89077  52.28622  95.94688  53.35566 100.57871  53.92477
      12  98.29082  54.17617         32.41925   7.013012 100.57871  53.92477  95.94688  53.35566  96.00301  54.42721 100.63468  54.99765
      12  98.34688  55.24945         32.44628   7.029354 100.63468  54.99765  96.00301  54.42721  96.05916  55.50089 100.69067  56.07265
      12  98.40296  56.32485         32.47333   7.045719 100.69067  56.07265  96.05916  55.50089  96.11533  56.57669 100.74668  57.14977
      12  98.45907  57.40238         32.50040   7.062105 100.74668  57.14977  96.11533  56.57669  96.17153  57.65463 100.80271  58.22903
      12  98.51520  58.48204         32.52750   7.078513 100.80271  58.22903  96.17153  57.65463  96.22775  58.73469 100.85877  59.31043
      12  98.57135  59.56384         32.55461   7.094943 100.85877  59.31043  96.22775  58.73469  96.28400  59.81690 100.91485  60.39396
      12  98.62752  60.64778         32.58175   7.111395 100.91485  60.39396  96.28400  59.81690  96.34026  60.90124 100.97095  61.47963
      12  98.68371  61.73386         32.60892   7.127869 100.97095  61.47963  96.34026  60.90124  96.39655  61.98773 101.02707  62.56746
      12  98.73993  62.82209         32.63610   7.144365 101.02707  62.56746  96.39655  61.98773  96.45286  63.07637 101.08322  63.65743
      12  98.79617  63.91247         32.66331   7.160882 101.08322  63.65743  96.45286  63.07637  96.50920  64.16716 101.13938  64.74956
      12  98.85243  65.00501         32.69054   7.177422 101.13938  64.74956  96.50920  64.16716  96.56556  65.26011 101.19557  65.84384
      12  98.90871  66.09971         32.71779   7.193983 101.19557  65.84384  96.56556  65.26011  96.62193  66.35522 101.25178  66.94029
      12  98.96502  67.19657         32.74507   7.210566 101.25178  66.94029  96.62193  66.35522  96.67834  67.45249 101.30801  68.03890
      12  99.02135  68.29560         32.77237   7.227172 101.30801  68.03890  96.67834  67.45249  96.73476  68.55193 101.36427  69.13969
      12  99.07770  69.39680         32.79969   7.243799 101.36427  69.13969  96.73476  68.55193  96.79121  69.65355 101.42054  70.24265
      12  99.13407  70.50017         32.82704   7.260447 101.42054  70.24265  96.79121  69.65355  96.84768  70.75734 101.47684  71.34778
      12  99.19046  71.60572         32.85440   7.277118 101.47684  71.34778  96.84768  70.75734  96.90417  71.86331 101.53316  72.45510
      12  99.24688  72.71346         32.88179   7.293811 101.53316  72.45510  96.90417  71.86331  96.96068  72.97146 101.58950  73.56460
      12  99.30332  73.82338         32.90921   7.310525 101.58950  73.56460  96.96068  72.97146  97.01722  74.08180 101.64586  74.67630
      12  99.35978  74.93550         32.93664   7.327261 101.64586  74.67630  97.01722  74.08180  97.07377  75.19434 101.70225  75.79018
      12  99.41626  76.04980         32.96410   7.344019 101.70225  75.79018  97.07377  75.19434  97.13035  76.30907 101.75865  76.90627
      12  99.47276  77.16631         32.99158   7.360799 101.75865  76.90627  97.13035  76.30907  97.18696  77.42599 101.81508  78.02455
      12  99.52929  78.28502         33.01909   7.377600 101.81508  78.02455  97.18696  77.42599  97.24358  78.54513 101.87153  79.14504
      12  99.58584  79.40594         33.04661   7.394424 101.87153  79.14504  97.24358  78.54513  97.30023  79.66647 101.92800  80.26774
      12  99.64241  80.52906         33.07416   7.411269 101.92800  80.26774  97.30023  79.66647  97.35690  80.79002 101.98449  81.39266
      12  99.69900  81.65440         33.10174   7.428136 101.98449  81.39266  97.35690  80.79002  97.41359  81.91579 102.04101  82.51979
      12  99.75561  82.78196         33.12933   7.445025 102.04101  82.51979  97.41359  81.91579  97.47031  83.04377 102.09754  83.64914
      12  99.81225  83.91174         33.15695   7.461935 102.09754  83.64914  97.47031  83.04377  97.52704  84.17398 102.15410  84.78071
      12  99.86891  85.04375         33.18460   7.478868 102.15410  84.78071  97.52704  84.17398  97.58380  85.30642 102.21068  85.91452
      12  99.92559  86.17799         33.21226   7.495822 102.21068  85.91452  97.58380  85.30642  97.64058  86.44109 102.26728  87.05056
      12  99.98229  87.31446         33.23995   7.512797 102.26728  87.05056  97.64058  86.44109  97.69738  87.57800 102.32390  88.18884
      12 100.03901  88.45317         33.26766   7.529795 102.32390  88.18884  97.69738  87.57800  97.75421  88.71714 102.38054  89.32936
      12 100.09575  89.59412         33.29540   7.546814 102.38054  89.32936  97.75421  88.71714  97.81105  89.85853 102.43721  90.47212
      12 100.15252  90.73732         33.32315   7.563855 102.43721  90.47212  97.81105  89.85853  97.86792  91.00216 102.49389  91.61713
      12 100.20931  91.88277         33.35093   7.580918 102.49389  91.61713  97.86792  91.00216  97.92481  92.14805 102.55060  92.76440
      12 100.26612  93.03048         33.37874   7.598002 102.55060  92.76440  97.92481  92.14805  97.98172  93.29619 102.60733  93.91392
      12 100.32295  94.18044         33.40657   7.615108 102.60733  93.91392  97.98172  93.29619  98.03866  94.44660 102.66408  95.06570
      12 100.37980  95.33267         33.43442   7.632236 102.66408  95.06570  98.03866  94.44660  98.09561  95.59926 102.72085  96.21976
      12 100.43668  96.48716         33.46229   7.649385 102.72085  96.21976  98.09561  95.59926  98.15259  96.75420 102.77764  97.37607
      12 100.49357  97.64392         33.49019   7.666556 102.77764  97.37607  98.15259  96.75420  98.20959  97.91141 102.83445  98.53467
      12 100.55049  98.80296         33.51811   7.683749 102.83445  98.53467  98.20959  97.91141  98.26661  99.07089 102.89129  99.69554
      12 100.60743  99.96428         33.54605   7.700963 102.89129  99.69554  98.26661  99.07089  98.32366 100.23265 102.94814 100.85869
      12 100.66439 101.12788         33.57402   7.718199 102.94814 100.85869  98.32366 100.23265  98.38072 101.39670 103.00502 102.02413
      12 100.72137 102.29377         33.60201   7.735456 103.00502 102.02413  98.38072 101.39670  98.43781 102.56303 103.06192 103.19186
      12 100.77837 103.46194         33.63002   7.752735 103.06192 103.19186  98.43781 102.56303  98.49492 103.73166 103.11883 104.36188
      12 100.83540 104.63242         33.65806   7.770036 103.11883 104.36188  98.49492 103.73166  98.55205 104.90258 103.17577 105.53420
      12 100.89244 105.80519         33.68612   7.787358 103.17577 105.53420  98.55205 104.90258  98.60920 106.07581 103.23273 106.70883
      12 100.94951 106.98027         33.71420   7.804702 103.23273 106.70883  98.60920 106.07581  98.66637 107.25134 103.28972 107.88576
      12 101.00660 108.15765         33.74231   7.822068 103.28972 107.88576  98.66637 107.25134  98.72357 108.42918 103.34672 109.06500
      12 101.06371 109.33735         33.77044   7.839455 103.34672 109.06500  98.72357 108.42918  98.78079 109.60933 103.40374 110.24655
      12 101.12084 110.51936         33.79859   7.856863 103.40374 110.24655  98.78079 109.60933  98.83803 110.79180 103.46079 111.43043
      12 101.17799 111.70369         33.82677   7.874293 103.46079 111.43043  98.83803 110.79180  98.89529 111.97659 103.51785 112.61662
      12 101.23516 112.89035         33.85497   7.891744 103.51785 112.61662  98.89529 111.97659  98.95257 113.16370 103.57494 113.80515
      12 101.29236 114.07933         33.88319   7.909217 103.57494 113.80515  98.95257 113.16370  99.00987 114.35315 103.63205 114.99600
      12 101.34958 115.27065         33.91144   7.926712 103.63205 114.99600  99.00987 114.35315  99.06720 115.54493 103.68917 116.18919
      12 101.40681 116.46430         33.93971   7.944227 103.68917 116.18919  99.06720 115.54493  99.12454 116.73904 103.74632 117.38473
      12 101.46407 117.66030         33.96801   7.961765 103.74632 117.38473  99.12454 116.73904  99.18191 117.93550 103.80349 118.58260
      12 101.52135 118.85864         33.99633   7.979323 103.80349 118.58260  99.18191 117.93550  99.23930 119.13431 103.86068 119.78282
      12 101.57865 120.05933         34.02467   7.996904 103.86068 119.78282  99.23930 119.13431  99.29671 120.33546 103.91789 120.98540
      12 101.63597 121.26237         34.05303   8.014505 103.91789 120.98540  99.29671 120.33546  99.35414 121.53898 103.97513 122.19033
      12 101.69331 122.46777         34.08142   8.032128 103.97513 122.19033  99.35414 121.53898  99.41159 122.74485 104.03238 123.39762
      12 101.75068 123.67554         34.10984   8.049772 104.03238 123.39762  99.41159 122.74485  99.46907 123.95308 104.08965 124.60728
      12 101.80806 124.88567         34.13827   8.067438 104.08965 124.60728  99.46907 123.95308  99.52656 125.16368 104.14694 125.81931
      12 101.86546 126.09817         34.16673   8.085125 104.14694 125.81931  99.52656 125.16368  99.58408 126.37665 104.20426 127.03371
      12 101.92289 127.31304         34.19522   8.102833 104.20426 127.03371  99.58408 126.37665  99.64162 127.59200 104.26159 128.25049
      11 114.88107   0.55695         33.74231   8.016617 117.15759   0.39773 112.53643  -0.25240 112.60466   0.71577 117.22562   1.36726
      11 114.94925   1.52677         33.77044   8.033562 117.22562   1.36726 112.60466   0.71577 112.67299   1.68587 117.29377   2.33873
      11 115.01755   2.49852         33.79859   8.050531 117.29377   2.33873 112.67299   1.68587 112.74144   2.65791 117.36202   3.31214
      11 115.08595   3.47221         33.82677   8.067524 117.36202   3.31214 112.74144   2.65791 112.80999   3.63189 117.43037   4.28749
      11 115.15445   4.44786         33.85497   8.084540 117.43037   4.28749 112.80999   3.63189 112.87864   4.60781 117.49883   5.26479
      11 115.22306   5.42544         33.88319   8.101580 117.49883   5.26479 112.87864   4.60781 112.94741   5.58569 117.56740   6.24405
      11 115.29178   6.40499         33.91144   8.118643 117.56740   6.24405 112.94741   5.58569 113.01628   6.56552 117.63607   7.22525
      11 115.36061   7.38648         33.93971   8.135730 117.63607   7.22525 113.01628   6.56552 113.08526   7.54731 117.70486   8.20842
      11 115.42954   8.36994         33.96801   8.152841 117.70486   8.20842 113.08526   7.54731 113.15434   8.53106 117.77374   9.19355
      11 115.49858   9.35536         33.99633   8.169975 117.77374   9.19355 113.15434   8.53106 113.22354   9.51677 117.84274  10.18064
      11 115.56773  10.34275         34.02467   8.187133 117.84274  10.18064 113.22354   9.51677 113.29284  10.50445 117.91184  11.16970
      11 115.63699  11.33210         34.05303   8.204315 117.91184  11.16970 113.29284  10.50445 113.36225  11.49410 117.98105  12.16074
      11 115.70636  12.32343         34.08142   8.221520 117.98105  12.16074 113.36225  11.49410 113.43177  12.48572 118.05037  13.15375
      11 115.77583  13.31674         34.10984   8.238748 118.05037  13.15375 113.43177  12.48572 113.50140  13.47932 118.11980  14.14874
      11 115.84541  14.31203         34.13827   8.256001 118.11980  14.14874 113.50140  13.47932 113.57113  14.47491 118.18933  15.14572
      11 115.91510  15.30930         34.16673   8.273277 118.18933  15.14572 113.57113  14.47491 113.64098  15.47247 118.25898  16.14468
      11 115.98490  16.30856         34.19522   8.290577 118.25898  16.14468 113.64098  15.47247 113.71093  16.47203 118.32873  17.14563
      11 116.05481  17.30981         34.22373   8.307900 118.32873  17.14563 113.71093  16.47203 113.78100  17.47358 118.39859  18.14858
      11 116.12482  18.31306         34.25226   8.325247 118.39859  18.14858 113.78100  17.47358 113.85117  18.47713 118.46856  19.15352
      11 116.19495  19.31830         34.28081   8.342617 118.46856  19.15352 113.85117  18.47713 113.92145  19.48267 118.53863  20.16047
      11 116.26518  20.32555         34.30939   8.360011 118.53863  20.16047 113.92145  19.48267 113.99185  20.49022 118.60882  21.16942
      11 116.33553  21.33480         34.33799   8.377429 118.60882  21.16942 113.99185  20.49022 114.06235  21.49977 118.67912  22.18038
      11 116.40598  22.34606         34.36662   8.394870 118.67912  22.18038 114.06235  21.49977 114.13296  22.51134 118.74952  23.19335
      11 116.47655  23.35934         34.39527   8.412335 118.74952  23.19335 114.13296  22.51134 114.20369  23.52492 118.82004  24.20834
      11 116.54722  24.37463         34.42395   8.429823 118.82004  24.20834 114.20369  23.52492 114.27452  24.54052 118.89066  25.22534
      11 116.61801  25.39195         34.45265   8.447335 118.89066  25.22534 114.27452  24.54052 114.34546  25.55813 118.96140  26.24437
      11 116.68890  26.41128         34.48137   8.464871 118.96140  26.24437 114.34546  25.55813 114.41652  26.57778 119.03224  27.26543
      11 116.75991  27.43265         34.51011   8.482430 119.03224  27.26543 114.41652  26.57778 114.48769  27.59945 119.10320  28.28852
      11 116.83102  28.45604         34.53888   8.500013 119.10320  28.28852 114.48769  27.59945 114.55896  28.62315 119.17427  29.31364
      11 116.90225  29.48147         34.56768   8.517619 119.17427  29.31364 114.55896  28.62315 114.63035  29.64889 119.24544  30.34080
      11 116.97359  30.50894         34.59650   8.535249 119.24544  30.34080 114.63035  29.64889 114.70186  30.67667 119.31673  31.37000
      11 117.04504  31.53845         34.62534   8.552902 119.31673  31.37000 114.70186  30.67667 114.77347  31.70649 119.38813  32.40124
      11 117.11660  32.57001         34.65421   8.570579 119.38813  32.40124 114.77347  31.70649 114.84519  32.73836 119.45964  33.43454
      11 117.18827  33.60362         34.68310   8.588280 119.45964  33.43454 114.84519  32.73836 114.91703  33.77228 119.53126  34.46988
      11 117.26006  34.63928         34.71201   8.606004 119.53126  34.46988 114.91703  33.77228 114.98898  34.80826 119.60299  35.50729
      11 117.33196  35.67700         34.74095   8.623751 119.60299  35.50729 114.98898  34.80826 115.06104  35.84629 119.67484  36.54675
      11 117.40397  36.71678         34.76991   8.641522 119.67484  36.54675 115.06104  35.84629 115.13322  36.88638 119.74680  37.58828
      11 117.47609  37.75862         34.79890   8.659317 119.74680  37.58828 115.13322  36.88638 115.20550  37.92854 119.81887  38.63187
      11 117.54832  38.80253         34.82791   8.677135 119.81887  38.63187 115.20550  37.92854 115.27790  38.97277 119.89105  39.67753
      11 117.62067  39.84851         34.85695   8.694977 119.89105  39.67753 115.27790  38.97277 115.35042  40.01907 119.96334  40.72527
      11 117.69313  40.89657         34.88601   8.712842 119.96334  40.72527 115.35042  40.01907 115.42305  41.06745 120.03575  41.77509
      11 117.76571  41.94671         34.91509   8.730730 120.03575  41.77509 115.42305  41.06745 115.49579  42.11791 120.10827  42.82699
      11 117.83839  42.99893         34.94420   8.748642 120.10827  42.82699 115.49579  42.11791 115.56864  43.17045 120.18090  43.88098
      11 117.91119  44.05324         34.97333   8.766578 120.18090  43.88098 115.56864  43.17045 115.64161  44.22508 120.25365  44.93705
      11 117.98411  45.10964         35.00249   8.784537 120.25365  44.93705 115.64161  44.22508 115.71469  45.28181 120.32651  45.99522
      11 118.05713  46.16813         35.03167   8.802520 120.32651  45.99522 115.71469  45.28181 115.78789  46.34062 120.39948  47.05548
      11 118.13028  47.22872         35.06087   8.820525 120.39948  47.05548 115.78789  46.34062 115.86120  47.40154 120.47257  48.11785
      11 118.20353  48.29142         35.09010   8.838555 120.47257  48.11785 115.86120  47.40154 115.93463  48.46456 120.54577  49.18232
      11 118.27690  49.35622         35.11936   8.856608 120.54577  49.18232 115.93463  48.46456 116.00817  49.52969 120.61908  50.24890
      11 118.35039  50.42312         35.14864   8.874684 120.61908  50.24890 116.00817  49.52969 116.08183  50.59692 120.69251  51.31760
      11 118.42399  51.49215         35.17794   8.892784 120.69251  51.31760 116.08183  50.59692 116.15560  51.66628 120.76605  52.38841
      11 118.49771  52.56329         35.20727   8.910907 120.76605  52.38841 116.15560  51.66628 116.22948  52.73774 120.83971  53.46133
      11 118.57154  53.63655         35.23662   8.929053 120.83971  53.46133 116.22948  52.73774 116.30349  53.81134 120.91349  54.53639
      11 118.64548  54.71193         35.26599   8.947223 120.91349  54.53639 116.30349  53.81134 116.37761  54.88705 120.98737  55.61357
      11 118.71954  55.78945         35.29539   8.965416 120.98737  55.61357 116.37761  54.88705 116.45184  55.96490 121.06138  56.69288
      11 118.79372  56.86909         35.32482   8.983633 121.06138  56.69288 116.45184  55.96490 116.52619  57.04488 121.13550  57.77432
      11 118.86801  57.95087         35.35427   9.001873 121.13550  57.77432 116.52619  57.04488 116.60066  58.12700 121.20973  58.85791
      11 118.94242  59.03480         35.38374   9.020136 121.20973  58.85791 116.60066  58.12700 116.67524  59.21126 121.28408  59.94364
      11 119.01695  60.12086         35.41324   9.038423 121.28408  59.94364 116.67524  59.21126 116.74994  60.29766 121.35855  61.03151
      11 119.09159  61.20908         35.44276   9.056733 121.35855  61.03151 116.74994  60.29766 116.82476  61.38621 121.43313  62.12154
      11 119.16635  62.29944         35.47231   9.075066 121.43313  62.12154 116.82476  61.38621 116.89970  62.47692 121.50783  63.21372
      11 119.24122  63.39196         35.50188   9.093423 121.50783  63.21372 116.89970  62.47692 116.97475  63.56978 121.58265  64.30806
      11 119.31622  64.48664         35.53148   9.111803 121.58265  64.30806 116.97475  63.56978 117.04992  64.66480 121.65758  65.40456
      11 119.39133  65.58349         35.56110   9.130206 121.65758  65.40456 117.04992  64.66480 117.12521  65.76199 121.73263  66.50323
      11 119.46655  66.68250         35.59075   9.148632 121.73263  66.50323 117.12521  65.76199 117.20061  66.86134 121.80780  67.60407
      11 119.54190  67.78368         35.62042   9.167082 121.80780  67.60407 117.20061  66.86134 117.27614  67.96287 121.88308  68.70708
      11 119.61736  68.88704         35.65012   9.185555 121.88308  68.70708 117.27614  67.96287 117.35178  69.06657 121.95848  69.81227
      11 119.69294  69.99258         35.67984   9.204051 121.95848  69.81227 117.35178  69.06657 117.42754  70.17246 122.03400  70.91964
      11 119.76864  71.10029         35.70958   9.222571 122.03400  70.91964 117.42754  70.17246 117.50342  71.28052 122.10964  72.02919
      11 119.84446  72.21020         35.73935   9.241113 122.10964  72.02919 117.50342  71.28052 117.57941  72.39078 122.18539  73.14094
      11 119.92039  73.32230         35.76915   9.259679 122.18539  73.14094 117.57941  72.39078 117.65553  73.50322 122.26127  74.25488
      11 119.99645  74.43659         35.79897   9.278268 122.26127  74.25488 117.65553  73.50322 117.73177  74.61787 122.33726  75.37102
      11 120.07262  75.55308         35.82881   9.296880 122.33726  75.37102 117.73177  74.61787 117.80812  75.73471 122.41337  76.48936
      11 120.14891  76.67177         35.85868   9.315515 122.41337  76.48936 117.80812  75.73471 117.88460  76.85375 122.48960  77.60990
      11 120.22533  77.79267         35.88858   9.334174 122.48960  77.60990 117.88460  76.85375 117.96119  77.97501 122.56595  78.73265
      11 120.30186  78.91578         35.91850   9.352855 122.56595  78.73265 117.96119  77.97501 118.03791  79.09847 122.64241  79.85762
      11 120.37851  80.04110         35.94844   9.371560 122.64241  79.85762 118.03791  79.09847 118.11474  80.22415 122.71900  80.98480
      11 120.45528  81.16864         35.97841   9.390288 122.71900  80.98480 118.11474  80.22415 118.19170  81.35205 122.79571  82.11421
      11 120.53217  82.29841         36.00841   9.409039 122.79571  82.11421 118.19170  81.35205 118.26878  82.48217 122.87253  83.24584
      11 120.60918  83.43040         36.03843   9.427812 122.87253  83.24584 118.26878  82.48217 118.34597  83.61452 122.94948  84.37970
      11 120.68632  84.56462         36.06847   9.446609 122.94948  84.37970 118.34597  83.61452 118.42329  84.74910 123.02655  85.51579
      11 120.76357  85.70107         36.09854   9.465429 123.02655  85.51579 118.42329  84.74910 118.50073  85.88592 123.10373  86.65412
      11 120.84094  86.83977         36.12864   9.484272 123.10373  86.65412 118.50073  85.88592 118.57829  87.02498 123.18104  87.79469
      11 120.91844  87.98070         36.15876   9.503138 123.18104  87.79469 118.57829  87.02498 118.65597  88.16628 123.25847  88.93751
      11 120.99605  89.12388         36.18890   9.522027 123.25847  88.93751 118.65597  88.16628 118.73378  89.30982 123.33602  90.08258
      11 121.07379  90.26932         36.21907   9.540939 123.33602  90.08258 118.73378  89.30982 118.81170  90.45562 123.41369  91.22990
      11 121.15165  91.41700         36.24927   9.559874 123.41369  91.22990 118.81170  90.45562 118.88975  91.60368 123.49148  92.37947
      11 121.22963  92.56695         36.27949   9.578832 123.49148  92.37947 118.88975  91.60368 118.96792  92.75399 123.56940  93.53131
      11 121.30773  93.71916         36.30973   9.597812 123.56940  93.53131 118.96792  92.75399 119.04622  93.90657 123.64743  94.68541
      11 121.38596  94.87363         36.34000   9.616816 123.64743  94.68541 119.04622  93.90657 119.12463  95.06142 123.72559  95.84179
      11 121.46431  96.03038         36.37030   9.635842 123.72559  95.84179 119.12463  95.06142 119.20317  96.21854 123.80387  97.00043
      11 121.54278  97.18940         36.40062   9.654892 123.80387  97.00043 119.20317  96.21854 119.28183  97.37793 123.88227  98.16136
      11 121.62137  98.35070         36.43097   9.673964 123.88227  98.16136 119.28183  97.37793 119.36062  98.53960 123.96079  99.32456
      11 121.70009  99.51428         36.46134   9.693059 123.96079  99.32456 119.36062  98.53960 119.43953  99.70356 124.03944 100.49006
      11 121.77893 100.68015         36.49173   9.712177 124.03944 100.49006 119.43953  99.70356 119.51856 100.86981 124.11821 101.65784
      11 121.85789 101.84831         36.52216   9.731317 124.11821 101.65784 119.51856 100.86981 119.59772 102.03835 124.19710 102.82791
      11 121.93698 103.01877         36.55261   9.750480 124.19710 102.82791 119.59772 102.03835 119.67700 103.20918 124.27612 104.00029
      11 122.01619 104.19152         36.58308   9.769666 124.27612 104.00029 119.67700 103.20918 119.75640 104.38232 124.35526 105.17497
      11 122.09552 105.36658         36.61358   9.788875 124.35526 105.17497 119.75640 104.38232 119.83593 105.55776 124.43452 106.35195
      11 122.17498 106.54395         36.64410   9.808107 124.43452 106.35195 119.83593 105.55776 119.91559 106.73551 124.51391 107.53124
      11 122.25456 107.72363         36.67465   9.827361 124.51391 107.53124 119.91559 106.73551 119.99537 107.91557 124.59342 108.71285
      11 122.33427 108.90562         36.70523   9.846638 124.59342 108.71285 119.99537 107.91557 120.07527 109.09795 124.67306 109.89678
      11 122.41410 110.08994         36.73583   9.865937 124.67306 109.89678 120.07527 109.09795 120.15530 110.28265 124.75282 111.08303
      11 122.49406 111.27657         36.76645   9.885259 124.75282 111.08303 120.15530 110.28265 120.23546 111.46968 124.83270 112.27161
      11 122.57415 112.46554         36.79710   9.904604 124.83270 112.27161 120.23546 111.46968 120.31574 112.65903 124.91271 113.46252
      11 122.65435 113.65684         36.82778   9.923971 124.91271 113.46252 120.31574 112.65903 120.39614 113.85072 124.99285 114.65576
      11 122.73469 114.85048         36.85848   9.943360 124.99285 114.65576 120.39614 113.85072 120.47668 115.04475 125.07311 115.85134
      11 122.81515 116.04645         36.88921   9.962773 125.07311 115.85134 120.47668 115.04475 120.55734 116.24112 125.15350 117.04927
      11 122.89573 117.24478         36.91996   9.982207 125.15350 117.04927 120.55734 116.24112 120.63812 117.43984 125.23401 118.24955
      11 122.97645 118.44545         36.95074  10.001665 125.23401 118.24955 120.63812 117.43984 120.71904 118.64090 125.31465 119.45218
      11 123.05729 119.64847         36.98155  10.021144 125.31465 119.45218 120.71904 118.64090 120.80008 119.84433 125.39541 120.65716
      11 123.13825 120.85386         37.01238  10.040646 125.39541 120.65716 120.80008 119.84433 120.88125 121.05011 125.47630 121.86451
      11 123.21934 122.06160         37.04324  10.060171 125.47630 121.86451 120.88125 121.05011 120.96254 122.25825 125.55732 123.07422
      11 123.30056 123.27171         37.07412  10.079718 125.55732 123.07422 120.96254 122.25825 121.04396 123.46876 125.63846 124.28630
      11 123.38191 124.48419         37.10503  10.099287 125.63846 124.28630 121.04396 123.46876 121.12551 124.68165 125.71973 125.50075
      11 123.46338 125.69905         37.13596  10.118879 125.71973 125.50075 121.12551 124.68165 121.20719 125.89691 125.80113 126.71758
      11 123.54499 126.91629         37.16692  10.138492 125.80113 126.71758 121.20719 125.89691 121.28900 127.11455 125.88265 127.93680
