\wavsamp version 5.0 (Thu May  9 10:19:35 PDT 2002)
\processing time 18:47:26 PST 01/05/2004
\character channelID = 1
| order |x_center |y_center |   wavelength   |  angle   |   x0    |   y0    |   x1    |   y1    |   x2    |   y2    |   x3    |   y3    |
| int   |  real   |  real   |    real        |   real   |  real   |  real   |  real   |  real   |  real   |  real   |  real   |  real   |
      20 120.32319 127.99667          9.89276   6.481150 122.79578 128.77164 117.82774 128.20726 117.85060 127.22170 122.81865 127.78608
      20 120.34607 127.01073          9.90037   6.481150 122.81865 127.78608 117.85060 127.22170 117.87349 126.23539 122.84153 126.79977
      20 120.36896 126.02404          9.90799   6.481150 122.84153 126.79977 117.87349 126.23539 117.89639 125.24831 122.86443 125.81269
      20 120.39187 125.03659          9.91562   6.481150 122.86443 125.81269 117.89639 125.24831 117.91931 124.26048 122.88735 124.82486
      20 120.41480 124.04837          9.92325   6.481150 122.88735 124.82486 117.91931 124.26048 117.94224 123.27189 122.91029 123.83627
      20 120.43774 123.05940          9.93088   6.481150 122.91029 123.83627 117.94224 123.27189 117.96520 122.28253 122.93324 122.84691
      20 120.46071 122.06966          9.93852   6.481150 122.93324 122.84691 117.96520 122.28253 117.98817 121.29242 122.95621 121.85680
      20 120.48369 121.07917          9.94617   6.481150 122.95621 121.85680 117.98817 121.29242 118.01116 120.30154 122.97920 120.86592
      20 120.50669 120.08791          9.95383   6.481150 122.97920 120.86592 118.01116 120.30154 118.03417 119.30990 123.00221 119.87428
      20 120.52970 119.09589          9.96149   6.481150 123.00221 119.87428 118.03417 119.30990 118.05719 118.31749 123.02524 118.88188
      20 120.55274 118.10310          9.96915   6.481150 123.02524 118.88188 118.05719 118.31749 118.08023 117.32433 123.04828 117.88871
      20 120.57579 117.10955          9.97682   6.481150 123.04828 117.88871 118.08023 117.32433 118.10330 116.33040 123.07134 116.89478
      20 120.59886 116.11524          9.98450   6.481150 123.07134 116.89478 118.10330 116.33040 118.12637 115.33570 123.09442 115.90008
      20 120.62194 115.12016          9.99218   6.481150 123.09442 115.90008 118.12637 115.33570 118.14947 114.34024 123.11751 114.90462
      20 120.64505 114.12432          9.99987   6.481150 123.11751 114.90462 118.14947 114.34024 118.17258 113.34401 123.14063 113.90839
      20 120.66817 113.12771         10.00757   6.481150 123.14063 113.90839 118.17258 113.34401 118.19571 112.34702 123.16376 112.91140
      20 120.69131 112.13033         10.01527   6.481150 123.16376 112.91140 118.19571 112.34702 118.21886 111.34926 123.18691 111.91364
      20 120.71447 111.13218         10.02298   6.481150 123.18691 111.91364 118.21886 111.34926 118.24203 110.35073 123.21008 110.91511
      20 120.73765 110.13327         10.03069   6.481150 123.21008 110.91511 118.24203 110.35073 118.26522 109.35143 123.23326 109.91581
      20 120.76084 109.13359         10.03841   6.481150 123.23326 109.91581 118.26522 109.35143 118.28842 108.35136 123.25646 108.91575
      20 120.78405 108.13314         10.04613   6.481150 123.25646 108.91575 118.28842 108.35136 118.31164 107.35053 123.27969 107.91491
      20 120.80728 107.13192         10.05386   6.481150 123.27969 107.91491 118.31164 107.35053 118.33488 106.34892 123.30292 106.91330
      20 120.83053 106.12992         10.06160   6.481150 123.30292 106.91330 118.33488 106.34892 118.35814 105.34654 123.32618 105.91093
      20 120.85379 105.12716         10.06934   6.481150 123.32618 105.91093 118.35814 105.34654 118.38141 104.34340 123.34945 104.90778
      20 120.87708 104.12363         10.07709   6.481150 123.34945 104.90778 118.38141 104.34340 118.40470 103.33948 123.37275 103.90386
      20 120.90038 103.11932         10.08485   6.481150 123.37275 103.90386 118.40470 103.33948 118.42801 102.33478 123.39606 102.89916
      20 120.92370 102.11424         10.09261   6.481150 123.39606 102.89916 118.42801 102.33478 118.45134 101.32932 123.41939 101.89370
      20 120.94704 101.10839         10.10037   6.481150 123.41939 101.89370 118.45134 101.32932 118.47469 100.32308 123.44273 100.88746
      20 120.97039 100.10176         10.10815   6.481150 123.44273 100.88746 118.47469 100.32308 118.49805  99.31606 123.46610  99.88044
      20 120.99376  99.09436         10.11592   6.481150 123.46610  99.88044 118.49805  99.31606 118.52143  98.30827 123.48948  98.87266
      20 121.01716  98.08618         10.12371   6.481150 123.48948  98.87266 118.52143  98.30827 118.54483  97.29971 123.51288  97.86409
      20 121.04056  97.07723         10.13150   6.481150 123.51288  97.86409 118.54483  97.29971 118.56825  96.29037 123.53630  96.85475
      20 121.06399  96.06750         10.13930   6.481150 123.53630  96.85475 118.56825  96.29037 118.59169  95.28025 123.55973  95.84463
      20 121.08744  95.05700         10.14710   6.481150 123.55973  95.84463 118.59169  95.28025 118.61514  94.26936 123.58319  94.83374
      20 121.11090  94.04571         10.15491   6.481150 123.58319  94.83374 118.61514  94.26936 118.63861  93.25768 123.60666  93.82207
      20 121.13438  93.03365         10.16272   6.481150 123.60666  93.82207 118.63861  93.25768 118.66210  92.24523 123.63015  92.80962
      20 121.15788  92.02081         10.17054   6.481150 123.63015  92.80962 118.66210  92.24523 118.68561  91.23200 123.65366  91.79638
      20 121.18140  91.00719         10.17837   6.481150 123.65366  91.79638 118.68561  91.23200 118.70914  90.21799 123.67718  90.78238
      20 121.20493  89.99279         10.18620   6.481150 123.67718  90.78238 118.70914  90.21799 118.73268  89.20320 123.70073  89.76758
      20 121.22849  88.97761         10.19404   6.481150 123.70073  89.76758 118.73268  89.20320 118.75624  88.18763 123.72429  88.75201
      20 121.25206  87.96165         10.20188   6.481150 123.72429  88.75201 118.75624  88.18763 118.77983  87.17128 123.74787  87.73566
      20 121.27565  86.94490         10.20973   6.481150 123.74787  87.73566 118.77983  87.17128 118.80342  86.15414 123.77147  86.71853
      20 121.29926  85.92738         10.21759   6.481150 123.77147  86.71853 118.80342  86.15414 118.82704  85.13623 123.79509  85.70061
      20 121.32288  84.90907         10.22545   6.481150 123.79509  85.70061 118.82704  85.13623 118.85068  84.11753 123.81872  84.68191
      20 121.34653  83.88998         10.23332   6.481150 123.81872  84.68191 118.85068  84.11753 118.87433  83.09804 123.84238  83.66242
      20 121.37019  82.87010         10.24120   6.481150 123.84238  83.66242 118.87433  83.09804 118.89800  82.07777 123.86605  82.64215
      20 121.39387  81.84944         10.24908   6.481150 123.86605  82.64215 118.89800  82.07777 118.92169  81.05672 123.88974  81.62110
      20 121.41757  80.82799         10.25697   6.481150 123.88974  81.62110 118.92169  81.05672 118.94540  80.03488 123.91344  80.59926
      20 121.44129  79.80576         10.26486   6.481150 123.91344  80.59926 118.94540  80.03488 118.96913  79.01225 123.93717  79.57663
      20 121.46502  78.78274         10.27276   6.481150 123.93717  79.57663 118.96913  79.01225 118.99287  77.98884 123.96092  78.55322
      20 121.48877  77.75893         10.28066   6.481150 123.96092  78.55322 118.99287  77.98884 119.01663  76.96464 123.98468  77.52902
      20 121.51255  76.73433         10.28857   6.481150 123.98468  77.52902 119.01663  76.96464 119.04041  75.93965 124.00846  76.50403
      20 121.53634  75.70895         10.29649   6.481150 124.00846  76.50403 119.04041  75.93965 119.06421  74.91387 124.03226  75.47825
      20 121.56015  74.68278         10.30441   6.481150 124.03226  75.47825 119.06421  74.91387 119.08803  73.88730 124.05608  74.45169
      20 121.58397  73.65582         10.31234   6.481150 124.05608  74.45169 119.08803  73.88730 119.11187  72.85995 124.07991  73.42433
      20 121.60782  72.62806         10.32028   6.481150 124.07991  73.42433 119.11187  72.85995 119.13572  71.83180 124.10377  72.39618
      20 121.63168  71.59952         10.32822   6.481150 124.10377  72.39618 119.13572  71.83180 119.15959  70.80286 124.12764  71.36724
      20 121.65556  70.57019         10.33617   6.481150 124.12764  71.36724 119.15959  70.80286 119.18349  69.77313 124.15153  70.33751
      20 121.67946  69.54006         10.34412   6.481150 124.15153  70.33751 119.18349  69.77313 119.20740  68.74261 124.17544  69.30699
      20 121.70338  68.50914         10.35208   6.481150 124.17544  69.30699 119.20740  68.74261 119.23132  67.71129 124.19937  68.27567
      20 121.72732  67.47743         10.36005   6.481150 124.19937  68.27567 119.23132  67.71129 119.25527  66.67918 124.22331  67.24356
      20 121.75127  66.44492         10.36802   6.481150 124.22331  67.24356 119.25527  66.67918 119.27923  65.64628 124.24728  66.21066
      20 121.77525  65.41162         10.37600   6.481150 124.24728  66.21066 119.27923  65.64628 119.30322  64.61258 124.27126  65.17696
      20 121.79924  64.37752         10.38399   6.481150 124.27126  65.17696 119.30322  64.61258 119.32722  63.57808 124.29526  64.14247
      20 121.82325  63.34263         10.39198   6.481150 124.29526  64.14247 119.32722  63.57808 119.35124  62.54279 124.31928  63.10718
      20 121.84728  62.30694         10.39997   6.481150 124.31928  63.10718 119.35124  62.54279 119.37528  61.50671 124.34332  62.07109
      20 121.87133  61.27046         10.40798   6.481150 124.34332  62.07109 119.37528  61.50671 119.39933  60.46982 124.36738  61.03420
      20 121.89540  60.23317         10.41598   6.481150 124.36738  61.03420 119.39933  60.46982 119.42341  59.43214 124.39146  59.99652
      20 121.91948  59.19509         10.42400   6.481150 124.39146  59.99652 119.42341  59.43214 119.44750  58.39366 124.41555  58.95804
      20 121.94358  58.15621         10.43202   6.481150 124.41555  58.95804 119.44750  58.39366 119.47162  57.35438 124.43966  57.91876
      20 121.96771  57.11653         10.44005   6.481150 124.43966  57.91876 119.47162  57.35438 119.49575  56.31430 124.46379  56.87868
      20 121.99185  56.07605         10.44808   6.481150 124.46379  56.87868 119.49575  56.31430 119.51990  55.27342 124.48794  55.83780
      20 122.01601  55.03477         10.45612   6.481150 124.48794  55.83780 119.51990  55.27342 119.54407  54.23174 124.51211  54.79612
      20 122.04018  53.99269         10.46417   6.481150 124.51211  54.79612 119.54407  54.23174 119.56825  53.18926 124.53630  53.75364
      20 122.06438  52.94981         10.47222   6.481150 124.53630  53.75364 119.56825  53.18926 119.59246  52.14597 124.56050  52.71035
      20 122.08859  51.90612         10.48028   6.481150 124.56050  52.71035 119.59246  52.14597 119.61668  51.10189 124.58473  51.66627
      20 122.11283  50.86163         10.48835   6.481150 124.58473  51.66627 119.61668  51.10189 119.64093  50.05699 124.60897  50.62138
      20 122.13708  49.81634         10.49642   6.481150 124.60897  50.62138 119.64093  50.05699 119.66519  49.01130 124.63323  49.57568
      20 122.16135  48.77024         10.50449   6.481150 124.63323  49.57568 119.66519  49.01130 119.68947  47.96480 124.65751  48.52918
      20 122.18564  47.72334         10.51258   6.481150 124.65751  48.52918 119.68947  47.96480 119.71377  46.91749 124.68181  47.48188
      20 122.20995  46.67563         10.52067   6.481150 124.68181  47.48188 119.71377  46.91749 119.73808  45.86938 124.70613  46.43376
      20 122.23428  45.62711         10.52876   6.481150 124.70613  46.43376 119.73808  45.86938 119.76242  44.82047 124.73047  45.38485
      20 122.25862  44.57779         10.53687   6.481150 124.73047  45.38485 119.76242  44.82047 119.78678  43.77074 124.75482  44.33512
      20 122.28299  43.52767         10.54497   6.481150 124.75482  44.33512 119.78678  43.77074 119.81115  42.72021 124.77919  43.28459
      20 122.30737  42.47673         10.55309   6.481150 124.77919  43.28459 119.81115  42.72021 119.83554  41.66887 124.80359  42.23325
      20 122.33177  41.42498         10.56121   6.481150 124.80359  42.23325 119.83554  41.66887 119.85995  40.61672 124.82800  41.18110
      20 122.35619  40.37243         10.56934   6.481150 124.82800  41.18110 119.85995  40.61672 119.88438  39.56376 124.85243  40.12814
      20 122.38063  39.31906         10.57747   6.481150 124.85243  40.12814 119.88438  39.56376 119.90883  38.50999 124.87688  39.07437
      20 122.40509  38.26489         10.58561   6.481150 124.87688  39.07437 119.90883  38.50999 119.93330  37.45541 124.90135  38.01979
      20 122.42957  37.20990         10.59376   6.481150 124.90135  38.01979 119.93330  37.45541 119.95779  36.40001 124.92583  36.96440
      20 122.45406  36.15410         10.60191   6.481150 124.92583  36.96440 119.95779  36.40001 119.98229  35.34381 124.95034  35.90819
      20 122.47858  35.09749         10.61007   6.481150 124.95034  35.90819 119.98229  35.34381 120.00682  34.28679 124.97486  34.85117
      20 122.50311  34.04007         10.61823   6.481150 124.97486  34.85117 120.00682  34.28679 120.03136  33.22896 124.99940  33.79334
      20 122.52766  32.98183         10.62640   6.481150 124.99940  33.79334 120.03136  33.22896 120.05592  32.17032 125.02397  32.73470
      20 122.55223  31.92278         10.63458   6.481150 125.02397  32.73470 120.05592  32.17032 120.08050  31.11086 125.04855  31.67524
      20 122.57682  30.86291         10.64276   6.481150 125.04855  31.67524 120.08050  31.11086 120.10510  30.05058 125.07315  30.61496
      20 122.60143  29.80223         10.65095   6.481150 125.07315  30.61496 120.10510  30.05058 120.12972  28.98949 125.09777  29.55387
      20 122.62606  28.74073         10.65915   6.481150 125.09777  29.55387 120.12972  28.98949 120.15436  27.92758 125.12240  28.49197
      20 122.65071  27.67841         10.66735   6.481150 125.12240  28.49197 120.15436  27.92758 120.17901  26.86486 125.14706  27.42924
      20 122.67538  26.61528         10.67556   6.481150 125.14706  27.42924 120.17901  26.86486 120.20369  25.80132 125.17174  26.36570
      20 122.70006  25.55133         10.68378   6.481150 125.17174  26.36570 120.20369  25.80132 120.22839  24.73696 125.19643  25.30134
      20 122.72476  24.48656         10.69200   6.481150 125.19643  25.30134 120.22839  24.73696 120.25310  23.67178 125.22114  24.23616
      20 122.74949  23.42097         10.70022   6.481150 125.22114  24.23616 120.25310  23.67178 120.27783  22.60578 125.24588  23.17016
      20 122.77423  22.35456         10.70846   6.481150 125.24588  23.17016 120.27783  22.60578 120.30258  21.53896 125.27063  22.10334
      20 122.79899  21.28733         10.71670   6.481150 125.27063  22.10334 120.30258  21.53896 120.32735  20.47132 125.29540  21.03570
      20 122.82377  20.21928         10.72495   6.481150 125.29540  21.03570 120.32735  20.47132 120.35214  19.40286 125.32019  19.96724
      20 122.84857  19.15041         10.73320   6.481150 125.32019  19.96724 120.35214  19.40286 120.37695  18.33357 125.34500  18.89795
      20 122.87339  18.08071         10.74146   6.481150 125.34500  18.89795 120.37695  18.33357 120.40178  17.26347 125.36983  17.82785
      20 122.89823  17.01019         10.74972   6.481150 125.36983  17.82785 120.40178  17.26347 120.42663  16.19254 125.39467  16.75692
      20 122.92308  15.93885         10.75800   6.481150 125.39467  16.75692 120.42663  16.19254 120.45149  15.12078 125.41954  15.68516
      20 122.94796  14.86668         10.76628   6.481150 125.41954  15.68516 120.45149  15.12078 120.47638  14.04820 125.44442  14.61258
      20 122.97285  13.79369         10.77456   6.481150 125.44442  14.61258 120.47638  14.04820 120.50128  12.97480 125.46933  13.53918
      20 122.99777  12.71987         10.78285   6.481150 125.46933  13.53918 120.50128  12.97480 120.52621  11.90057 125.49425  12.46495
      20 123.02270  11.64523         10.79115   6.481150 125.49425  12.46495 120.52621  11.90057 120.55115  10.82551 125.51919  11.38989
      20 123.04765  10.56976         10.79945   6.481150 125.51919  11.38989 120.55115  10.82551 120.57611   9.74962 125.54416  10.31400
      20 123.07262   9.49346         10.80776   6.481150 125.54416  10.31400 120.57611   9.74962 120.60109   8.67291 125.56914   9.23729
      20 123.09762   8.41633         10.81608   6.481150 125.56914   9.23729 120.60109   8.67291 120.62609   7.59537 125.59414   8.15975
      20 123.12263   7.33837         10.82440   6.481150 125.59414   8.15975 120.62609   7.59537 120.65111   6.51700 125.61916   7.08138
      20 123.14765   6.25959         10.83273   6.481150 125.61916   7.08138 120.65111   6.51700 120.67615   5.43780 125.64420   6.00218
      20 123.17270   5.17997         10.84107   6.481150 125.64420   6.00218 120.67615   5.43780 120.70121   4.35777 125.66925   4.92215
      20 123.19777   4.09953         10.84941   6.481150 125.66925   4.92215 120.70121   4.35777 120.72629   3.27691 125.69433   3.84129
      20 123.22286   3.01825         10.85776   6.481150 125.69433   3.84129 120.72629   3.27691 120.75138   2.19521 125.71943   2.75959
      20 123.24796   1.93614         10.86612   6.481150 125.71943   2.75959 120.75138   2.19521 120.77650   1.11269 125.74455   1.67707
      20 123.27309   0.85320         10.87448   6.481150 125.74455   1.67707 120.77650   1.11269 120.80164   0.02933 125.76968   0.59371
      19 113.31055 127.53637         10.38399   6.669800 115.78491 128.29604 110.81875 127.71530 110.83618 126.77671 115.80234 127.35745
      19 113.32798 126.59743         10.39198   6.669800 115.80234 127.35745 110.83618 126.77671 110.85361 125.83740 115.81977 126.41814
      19 113.34542 125.65775         10.39997   6.669800 115.81977 126.41814 110.85361 125.83740 110.87106 124.89737 115.83722 125.47811
      19 113.36288 124.71736         10.40798   6.669800 115.83722 125.47811 110.87106 124.89737 110.88853 123.95661 115.85469 124.53735
      19 113.38035 123.77624         10.41598   6.669800 115.85469 124.53735 110.88853 123.95661 110.90601 123.01513 115.87217 123.59587
      19 113.39783 122.83440         10.42400   6.669800 115.87217 123.59587 110.90601 123.01513 110.92350 122.07293 115.88966 122.65367
      19 113.41533 121.89183         10.43202   6.669800 115.88966 122.65367 110.92350 122.07293 110.94100 121.13000 115.90716 121.71074
      19 113.43284 120.94854         10.44005   6.669800 115.90716 121.71074 110.94100 121.13000 110.95852 120.18635 115.92468 120.76708
      19 113.45036 120.00452         10.44808   6.669800 115.92468 120.76708 110.95852 120.18635 110.97605 119.24196 115.94221 119.82270
      19 113.46790 119.05978         10.45612   6.669800 115.94221 119.82270 110.97605 119.24196 110.99359 118.29686 115.95975 118.87759
      19 113.48545 118.11431         10.46417   6.669800 115.95975 118.87759 110.99359 118.29686 111.01115 117.35102 115.97731 117.93176
      19 113.50302 117.16811         10.47222   6.669800 115.97731 117.93176 111.01115 117.35102 111.02872 116.40446 115.99488 116.98519
      19 113.52059 116.22118         10.48028   6.669800 115.99488 116.98519 111.02872 116.40446 111.04631 115.45717 116.01247 116.03790
      19 113.53819 115.27352         10.48835   6.669800 116.01247 116.03790 111.04631 115.45717 111.06391 114.50915 116.03007 115.08988
      19 113.55579 114.32514         10.49642   6.669800 116.03007 115.08988 111.06391 114.50915 111.08152 113.56040 116.04768 114.14113
      19 113.57341 113.37602         10.50449   6.669800 116.04768 114.14113 111.08152 113.56040 111.09914 112.61092 116.06530 113.19165
      19 113.59104 112.42618         10.51258   6.669800 116.06530 113.19165 111.09914 112.61092 111.11678 111.66071 116.08294 112.24144
      19 113.60869 111.47560         10.52067   6.669800 116.08294 112.24144 111.11678 111.66071 111.13444 110.70976 116.10060 111.29050
      19 113.62635 110.52430         10.52876   6.669800 116.10060 111.29050 111.13444 110.70976 111.15210 109.75809 116.11826 110.33883
      19 113.64402 109.57226         10.53687   6.669800 116.11826 110.33883 111.15210 109.75809 111.16978 108.80568 116.13594 109.38642
      19 113.66171 108.61948         10.54497   6.669800 116.13594 109.38642 111.16978 108.80568 111.18748 107.85255 116.15364 108.43328
      19 113.67941 107.66598         10.55309   6.669800 116.15364 108.43328 111.18748 107.85255 111.20518 106.89867 116.17134 107.47941
      19 113.69712 106.71174         10.56121   6.669800 116.17134 107.47941 111.20518 106.89867 111.22290 105.94407 116.18906 106.52480
      19 113.71485 105.75676         10.56934   6.669800 116.18906 106.52480 111.22290 105.94407 111.24064 104.98873 116.20680 105.56946
      19 113.73259 104.80106         10.57747   6.669800 116.20680 105.56946 111.24064 104.98873 111.25839 104.03265 116.22455 104.61339
      19 113.75035 103.84461         10.58561   6.669800 116.22455 104.61339 111.25839 104.03265 111.27615 103.07584 116.24231 103.65657
      19 113.76812 102.88743         10.59376   6.669800 116.24231 103.65657 111.27615 103.07584 111.29392 102.11829 116.26008 102.69903
      19 113.78590 101.92952         10.60191   6.669800 116.26008 102.69903 111.29392 102.11829 111.31171 101.16000 116.27787 101.74074
      19 113.80369 100.97086         10.61007   6.669800 116.27787 101.74074 111.31171 101.16000 111.32951 100.20098 116.29567 100.78172
      19 113.82150 100.01147         10.61823   6.669800 116.29567 100.78172 111.32951 100.20098 111.34733  99.24122 116.31349  99.82196
      19 113.83933  99.05134         10.62640   6.669800 116.31349  99.82196 111.34733  99.24122 111.36516  98.28072 116.33132  98.86146
      19 113.85716  98.09047         10.63458   6.669800 116.33132  98.86146 111.36516  98.28072 111.38301  97.31949 116.34917  97.90022
      19 113.87501  97.12886         10.64276   6.669800 116.34917  97.90022 111.38301  97.31949 111.40086  96.35751 116.36702  96.93824
      19 113.89288  96.16652         10.65095   6.669800 116.36702  96.93824 111.40086  96.35751 111.41873  95.39479 116.38489  95.97553
      19 113.91076  95.20343         10.65915   6.669800 116.38489  95.97553 111.41873  95.39479 111.43662  94.43133 116.40278  95.01207
      19 113.92865  94.23960         10.66735   6.669800 116.40278  95.01207 111.43662  94.43133 111.45452  93.46713 116.42068  94.04787
      19 113.94655  93.27503         10.67556   6.669800 116.42068  94.04787 111.45452  93.46713 111.47243  92.50219 116.43859  93.08292
      19 113.96447  92.30971         10.68378   6.669800 116.43859  93.08292 111.47243  92.50219 111.49036  91.53650 116.45652  92.11724
      19 113.98241  91.34366         10.69200   6.669800 116.45652  92.11724 111.49036  91.53650 111.50830  90.57007 116.47446  91.15081
      19 114.00035  90.37686         10.70022   6.669800 116.47446  91.15081 111.50830  90.57007 111.52625  89.60290 116.49241  90.18364
      19 114.01832  89.40931         10.70846   6.669800 116.49241  90.18364 111.52625  89.60290 111.54422  88.63499 116.51038  89.21572
      19 114.03629  88.44103         10.71670   6.669800 116.51038  89.21572 111.54422  88.63499 111.56220  87.66633 116.52836  88.24706
      19 114.05428  87.47199         10.72495   6.669800 116.52836  88.24706 111.56220  87.66633 111.58020  86.69692 116.54636  87.27766
      19 114.07228  86.50221         10.73320   6.669800 116.54636  87.27766 111.58020  86.69692 111.59821  85.72677 116.56437  86.30750
      19 114.09030  85.53169         10.74146   6.669800 116.56437  86.30750 111.59821  85.72677 111.61623  84.75587 116.58239  85.33661
      19 114.10833  84.56041         10.74972   6.669800 116.58239  85.33661 111.61623  84.75587 111.63427  83.78422 116.60043  84.36496
      19 114.12637  83.58840         10.75800   6.669800 116.60043  84.36496 111.63427  83.78422 111.65232  82.81183 116.61848  83.39257
      19 114.14443  82.61563         10.76628   6.669800 116.61848  83.39257 111.65232  82.81183 111.67038  81.83869 116.63654  82.41942
      19 114.16250  81.64211         10.77456   6.669800 116.63654  82.41942 111.67038  81.83869 111.68846  80.86480 116.65462  81.44553
      19 114.18059  80.66785         10.78285   6.669800 116.65462  81.44553 111.68846  80.86480 111.70655  79.89016 116.67271  80.47089
      19 114.19869  79.69283         10.79115   6.669800 116.67271  80.47089 111.70655  79.89016 111.72466  78.91477 116.69082  79.49550
      19 114.21680  78.71707         10.79945   6.669800 116.69082  79.49550 111.72466  78.91477 111.74278  77.93863 116.70894  78.51936
      19 114.23493  77.74055         10.80776   6.669800 116.70894  78.51936 111.74278  77.93863 111.76092  76.96173 116.72708  77.54247
      19 114.25307  76.76328         10.81608   6.669800 116.72708  77.54247 111.76092  76.96173 111.77906  75.98409 116.74522  76.56483
      19 114.27122  75.78526         10.82440   6.669800 116.74522  76.56483 111.77906  75.98409 111.79723  75.00570 116.76339  75.58643
      19 114.28939  74.80649         10.83273   6.669800 116.76339  75.58643 111.79723  75.00570 111.81540  74.02655 116.78156  74.60728
      19 114.30758  73.82696         10.84107   6.669800 116.78156  74.60728 111.81540  74.02655 111.83359  73.04664 116.79975  73.62738
      19 114.32578  72.84668         10.84941   6.669800 116.79975  73.62738 111.83359  73.04664 111.85180  72.06599 116.81796  72.64672
      19 114.34399  71.86565         10.85776   6.669800 116.81796  72.64672 111.85180  72.06599 111.87002  71.08458 116.83618  71.66531
      19 114.36221  70.88386         10.86612   6.669800 116.83618  71.66531 111.87002  71.08458 111.88825  70.10241 116.85441  70.68315
      19 114.38045  69.90132         10.87448   6.669800 116.85441  70.68315 111.88825  70.10241 111.90649  69.11949 116.87265  69.70022
      19 114.39870  68.91802         10.88285   6.669800 116.87265  69.70022 111.90649  69.11949 111.92475  68.13581 116.89091  68.71655
      19 114.41697  67.93396         10.89122   6.669800 116.89091  68.71655 111.92475  68.13581 111.94303  67.15137 116.90919  67.73211
      19 114.43525  66.94915         10.89960   6.669800 116.90919  67.73211 111.94303  67.15137 111.96132  66.16618 116.92748  66.74692
      19 114.45355  65.96357         10.90799   6.669800 116.92748  66.74692 111.96132  66.16618 111.97962  65.18023 116.94578  65.76097
      19 114.47186  64.97724         10.91638   6.669800 116.94578  65.76097 111.97962  65.18023 111.99794  64.19352 116.96410  64.77426
      19 114.49018  63.99015         10.92478   6.669800 116.96410  64.77426 111.99794  64.19352 112.01627  63.20605 116.98243  63.78679
      19 114.50852  63.00231         10.93319   6.669800 116.98243  63.78679 112.01627  63.20605 112.03461  62.21782 117.00077  62.79856
      19 114.52687  62.01370         10.94160   6.669800 117.00077  62.79856 112.03461  62.21782 112.05297  61.22883 117.01913  61.80957
      19 114.54524  61.02433         10.95002   6.669800 117.01913  61.80957 112.05297  61.22883 112.07135  60.23908 117.03751  60.81982
      19 114.56362  60.03419         10.95845   6.669800 117.03751  60.81982 112.07135  60.23908 112.08973  59.24857 117.05589  59.82931
      19 114.58201  59.04330         10.96688   6.669800 117.05589  59.82931 112.08973  59.24857 112.10813  58.25730 117.07429  58.83803
      19 114.60042  58.05165         10.97532   6.669800 117.07429  58.83803 112.10813  58.25730 112.12655  57.26526 117.09271  57.84599
      19 114.61884  57.05923         10.98377   6.669800 117.09271  57.84599 112.12655  57.26526 112.14498  56.27246 117.11114  56.85319
      19 114.63728  56.06604         10.99222   6.669800 117.11114  56.85319 112.14498  56.27246 112.16342  55.27889 117.12958  55.85963
      19 114.65573  55.07210         11.00068   6.669800 117.12958  55.85963 112.16342  55.27889 112.18188  54.28456 117.14804  54.86530
      19 114.67420  54.07739         11.00914   6.669800 117.14804  54.86530 112.18188  54.28456 112.20035  53.28947 117.16651  53.87021
      19 114.69268  53.08191         11.01762   6.669800 117.16651  53.87021 112.20035  53.28947 112.21884  52.29361 117.18500  52.87435
      19 114.71117  52.08566         11.02609   6.669800 117.18500  52.87435 112.21884  52.29361 112.23734  51.29698 117.20350  51.87772
      19 114.72968  51.08865         11.03458   6.669800 117.20350  51.87772 112.23734  51.29698 112.25586  50.29959 117.22202  50.88033
      19 114.74820  50.09088         11.04307   6.669800 117.22202  50.88033 112.25586  50.29959 112.27439  49.30143 117.24055  49.88217
      19 114.76674  49.09233         11.05157   6.669800 117.24055  49.88217 112.27439  49.30143 112.29293  48.30250 117.25909  48.88324
      19 114.78529  48.09302         11.06007   6.669800 117.25909  48.88324 112.29293  48.30250 112.31149  47.30280 117.27765  47.88354
      19 114.80385  47.09294         11.06858   6.669800 117.27765  47.88354 112.31149  47.30280 112.33006  46.30234 117.29622  46.88307
      19 114.82243  46.09209         11.07710   6.669800 117.29622  46.88307 112.33006  46.30234 112.34865  45.30110 117.31481  45.88184
      19 114.84103  45.09046         11.08563   6.669800 117.31481  45.88184 112.34865  45.30110 112.36725  44.29909 117.33341  44.87983
      19 114.85963  44.08807         11.09416   6.669800 117.33341  44.87983 112.36725  44.29909 112.38586  43.29631 117.35202  43.87705
      19 114.87826  43.08491         11.10269   6.669800 117.35202  43.87705 112.38586  43.29631 112.40449  42.29276 117.37065  42.87350
      19 114.89689  42.08097         11.11124   6.669800 117.37065  42.87350 112.40449  42.29276 112.42313  41.28844 117.38929  41.86918
      19 114.91554  41.07626         11.11979   6.669800 117.38929  41.86918 112.42313  41.28844 112.44179  40.28335 117.40795  40.86408
      19 114.93421  40.07078         11.12835   6.669800 117.40795  40.86408 112.44179  40.28335 112.46047  39.27748 117.42663  39.85821
      19 114.95289  39.06452         11.13691   6.669800 117.42663  39.85821 112.46047  39.27748 112.47915  38.27083 117.44531  38.85157
      19 114.97158  38.05749         11.14548   6.669800 117.44531  38.85157 112.47915  38.27083 112.49785  37.26342 117.46401  37.84415
      19 114.99029  37.04969         11.15406   6.669800 117.46401  37.84415 112.49785  37.26342 112.51657  36.25522 117.48273  36.83596
      19 115.00901  36.04111         11.16264   6.669800 117.48273  36.83596 112.51657  36.25522 112.53530  35.24626 117.50146  35.82699
      19 115.02775  35.03175         11.17123   6.669800 117.50146  35.82699 112.53530  35.24626 112.55404  34.23651 117.52020  34.81725
      19 115.04650  34.02162         11.17983   6.669800 117.52020  34.81725 112.55404  34.23651 112.57280  33.22599 117.53896  33.80673
      19 115.06527  33.01071         11.18843   6.669800 117.53896  33.80673 112.57280  33.22599 112.59157  32.21469 117.55773  32.79543
      19 115.08405  31.99902         11.19704   6.669800 117.55773  32.79543 112.59157  32.21469 112.61036  31.20261 117.57652  31.78335
      19 115.10284  30.98655         11.20566   6.669800 117.57652  31.78335 112.61036  31.20261 112.62916  30.18976 117.59532  30.77049
      19 115.12165  29.97331         11.21428   6.669800 117.59532  30.77049 112.62916  30.18976 112.64798  29.17612 117.61414  29.75686
      19 115.14048  28.95928         11.22291   6.669800 117.61414  29.75686 112.64798  29.17612 112.66681  28.16170 117.63297  28.74244
      19 115.15931  27.94447         11.23154   6.669800 117.63297  28.74244 112.66681  28.16170 112.68566  27.14651 117.65182  27.72724
      19 115.17817  26.92889         11.24019   6.669800 117.65182  27.72724 112.68566  27.14651 112.70452  26.13053 117.67068  26.71127
      19 115.19704  25.91252         11.24884   6.669800 117.67068  26.71127 112.70452  26.13053 112.72339  25.11377 117.68955  25.69451
      19 115.21592  24.89537         11.25749   6.669800 117.68955  25.69451 112.72339  25.11377 112.74228  24.09623 117.70844  24.67696
      19 115.23481  23.87743         11.26616   6.669800 117.70844  24.67696 112.74228  24.09623 112.76119  23.07790 117.72735  23.65864
      19 115.25372  22.85872         11.27483   6.669800 117.72735  23.65864 112.76119  23.07790 112.78010  22.05879 117.74626  22.63953
      19 115.27265  21.83922         11.28350   6.669800 117.74626  22.63953 112.78010  22.05879 112.79904  21.03890 117.76520  21.61964
      19 115.29159  20.81893         11.29218   6.669800 117.76520  21.61964 112.79904  21.03890 112.81798  20.01822 117.78414  20.59896
      19 115.31054  19.79786         11.30087   6.669800 117.78414  20.59896 112.81798  20.01822 112.83695  18.99676 117.80311  19.57750
      19 115.32951  18.77600         11.30957   6.669800 117.80311  19.57750 112.83695  18.99676 112.85592  17.97451 117.82208  18.55525
      19 115.34850  17.75336         11.31827   6.669800 117.82208  18.55525 112.85592  17.97451 112.87491  16.95148 117.84107  17.53221
      19 115.36750  16.72993         11.32698   6.669800 117.84107  17.53221 112.87491  16.95148 112.89392  15.92765 117.86008  16.50839
      19 115.38651  15.70571         11.33570   6.669800 117.86008  16.50839 112.89392  15.92765 112.91294  14.90304 117.87910  15.48378
      19 115.40554  14.68071         11.34442   6.669800 117.87910  15.48378 112.91294  14.90304 112.93197  13.87764 117.89813  14.45838
      19 115.42458  13.65492         11.35315   6.669800 117.89813  14.45838 112.93197  13.87764 112.95102  12.85145 117.91718  13.43219
      19 115.44364  12.62833         11.36189   6.669800 117.91718  13.43219 112.95102  12.85145 112.97009  11.82447 117.93625  12.40521
      19 115.46271  11.60096         11.37063   6.669800 117.93625  12.40521 112.97009  11.82447 112.98917  10.79671 117.95533  11.37744
      19 115.48179  10.57279         11.37938   6.669800 117.95533  11.37744 112.98917  10.79671 113.00826   9.76815 117.97442  10.34888
      19 115.50089   9.54384         11.38814   6.669800 117.97442  10.34888 113.00826   9.76815 113.02737   8.73880 117.99353   9.31953
      19 115.52001   8.51409         11.39690   6.669800 117.99353   9.31953 113.02737   8.73880 113.04649   7.70865 118.01265   8.28939
      19 115.53914   7.48355         11.40567   6.669800 118.01265   8.28939 113.04649   7.70865 113.06563   6.67772 118.03179   7.25845
      19 115.55829   6.45222         11.41445   6.669800 118.03179   7.25845 113.06563   6.67772 113.08478   5.64599 118.05094   6.22672
      19 115.57745   5.42009         11.42323   6.669800 118.05094   6.22672 113.08478   5.64599 113.10395   4.61347 118.07011   5.19420
      19 115.59662   4.38717         11.43202   6.669800 118.07011   5.19420 113.10395   4.61347 113.12313   3.58015 118.08929   4.16088
      19 115.61581   3.35346         11.44082   6.669800 118.08929   4.16088 113.12313   3.58015 113.14233   2.54604 118.10849   3.12677
      19 115.63501   2.31895         11.44963   6.669800 118.10849   3.12677 113.14233   2.54604 113.16154   1.51113 118.12770   2.09186
      19 115.65423   1.28364         11.45844   6.669800 118.12770   2.09186 113.16154   1.51113 113.18077   0.47542 118.14693   1.05616
      19 115.67347   0.24754         11.46725   6.669800 118.14693   1.05616 113.18077   0.47542 113.20001  -0.56108 118.16617   0.01966
      18 105.54982 127.54589         10.92478   6.940260 108.02584 128.31257 103.06248 127.70839 103.07380 126.77921 108.03716 127.38338
      18 105.56114 126.61634         10.93319   6.940260 108.03716 127.38338 103.07380 126.77921 103.08513 125.84930 108.04849 126.45347
      18 105.57248 125.68608         10.94160   6.940260 108.04849 126.45347 103.08513 125.84930 103.09646 124.91868 108.05983 125.52286
      18 105.58382 124.75510         10.95002   6.940260 108.05983 125.52286 103.09646 124.91868 103.10781 123.98735 108.07117 124.59152
      18 105.59517 123.82341         10.95845   6.940260 108.07117 124.59152 103.10781 123.98735 103.11917 123.05530 108.08253 123.65947
      18 105.60653 122.89100         10.96688   6.940260 108.08253 123.65947 103.11917 123.05530 103.13053 122.12253 108.09389 122.72670
      18 105.61790 121.95787         10.97532   6.940260 108.09389 122.72670 103.13053 122.12253 103.14190 121.18904 108.10527 121.79322
      18 105.62927 121.02403         10.98377   6.940260 108.10527 121.79322 103.14190 121.18904 103.15328 120.25484 108.11665 120.85901
      18 105.64066 120.08946         10.99222   6.940260 108.11665 120.85901 103.15328 120.25484 103.16467 119.31992 108.12804 119.92409
      18 105.65206 119.15418         11.00068   6.940260 108.12804 119.92409 103.16467 119.31992 103.17607 118.38427 108.13944 118.98844
      18 105.66346 118.21818         11.00914   6.940260 108.13944 118.98844 103.17607 118.38427 103.18748 117.44791 108.15084 118.05208
      18 105.67487 117.28145         11.01762   6.940260 108.15084 118.05208 103.18748 117.44791 103.19890 116.51083 108.16226 117.11500
      18 105.68629 116.34401         11.02609   6.940260 108.16226 117.11500 103.19890 116.51083 103.21032 115.57302 108.17369 116.17719
      18 105.69772 115.40584         11.03458   6.940260 108.17369 116.17719 103.21032 115.57302 103.22176 114.63450 108.18512 115.23867
      18 105.70916 114.46696         11.04307   6.940260 108.18512 115.23867 103.22176 114.63450 103.23320 113.69525 108.19656 114.29942
      18 105.72061 113.52735         11.05157   6.940260 108.19656 114.29942 103.23320 113.69525 103.24465 112.75528 108.20801 113.35945
      18 105.73206 112.58701         11.06007   6.940260 108.20801 113.35945 103.24465 112.75528 103.25611 111.81458 108.21947 112.41875
      18 105.74353 111.64596         11.06858   6.940260 108.21947 112.41875 103.25611 111.81458 103.26758 110.87316 108.23094 111.47733
      18 105.75500 110.70418         11.07710   6.940260 108.23094 111.47733 103.26758 110.87316 103.27906 109.93102 108.24242 110.53519
      18 105.76648 109.76167         11.08563   6.940260 108.24242 110.53519 103.27906 109.93102 103.29055 108.98815 108.25391 109.59232
      18 105.77798 108.81844         11.09416   6.940260 108.25391 109.59232 103.29055 108.98815 103.30204 108.04456 108.26541 108.64873
      18 105.78948 107.87448         11.10269   6.940260 108.26541 108.64873 103.30204 108.04456 103.31355 107.10024 108.27691 107.70441
      18 105.80098 106.92980         11.11124   6.940260 108.27691 107.70441 103.31355 107.10024 103.32506 106.15519 108.28842 106.75936
      18 105.81250 105.98439         11.11979   6.940260 108.28842 106.75936 103.32506 106.15519 103.33658 105.20942 108.29995 105.81359
      18 105.82403 105.03825         11.12835   6.940260 108.29995 105.81359 103.33658 105.20942 103.34811 104.26292 108.31148 104.86709
      18 105.83557 104.09139         11.13691   6.940260 108.31148 104.86709 103.34811 104.26292 103.35965 103.31569 108.32302 103.91986
      18 105.84711 103.14379         11.14548   6.940260 108.32302 103.91986 103.35965 103.31569 103.37120 102.36773 108.33457 102.97190
      18 105.85866 102.19547         11.15406   6.940260 108.33457 102.97190 103.37120 102.36773 103.38276 101.41904 108.34612 102.02321
      18 105.87023 101.24642         11.16264   6.940260 108.34612 102.02321 103.38276 101.41904 103.39433 100.46962 108.35769 101.07379
      18 105.88180 100.29663         11.17123   6.940260 108.35769 101.07379 103.39433 100.46962 103.40590  99.51947 108.36927 100.12365
      18 105.89338  99.34612         11.17983   6.940260 108.36927 100.12365 103.40590  99.51947 103.41749  98.56859 108.38085  99.17277
      18 105.90497  98.39487         11.18843   6.940260 108.38085  99.17277 103.41749  98.56859 103.42908  97.61698 108.39244  98.22115
      18 105.91656  97.44290         11.19704   6.940260 108.39244  98.22115 103.42908  97.61698 103.44068  96.66464 108.40405  97.26881
      18 105.92817  96.49019         11.20566   6.940260 108.40405  97.26881 103.44068  96.66464 103.45230  95.71156 108.41566  96.31573
      18 105.93979  95.53674         11.21428   6.940260 108.41566  96.31573 103.45230  95.71156 103.46392  94.75775 108.42728  95.36192
      18 105.95141  94.58257         11.22291   6.940260 108.42728  95.36192 103.46392  94.75775 103.47554  93.80321 108.43891  94.40738
      18 105.96305  93.62765         11.23154   6.940260 108.43891  94.40738 103.47554  93.80321 103.48718  92.84793 108.45055  93.45210
      18 105.97469  92.67201         11.24019   6.940260 108.45055  93.45210 103.48718  92.84793 103.49883  91.89192 108.46219  92.49609
      18 105.98634  91.71563         11.24884   6.940260 108.46219  92.49609 103.49883  91.89192 103.51049  90.93517 108.47385  91.53934
      18 105.99800  90.75851         11.25749   6.940260 108.47385  91.53934 103.51049  90.93517 103.52215  89.97768 108.48551  90.58185
      18 106.00967  89.80065         11.26616   6.940260 108.48551  90.58185 103.52215  89.97768 103.53383  89.01946 108.49719  89.62363
      18 106.02135  88.84206         11.27483   6.940260 108.49719  89.62363 103.53383  89.01946 103.54551  88.06050 108.50887  88.66467
      18 106.03304  87.88273         11.28350   6.940260 108.50887  88.66467 103.54551  88.06050 103.55720  87.10080 108.52056  87.70497
      18 106.04473  86.92267         11.29218   6.940260 108.52056  87.70497 103.55720  87.10080 103.56890  86.14036 108.53226  86.74453
      18 106.05644  85.96186         11.30087   6.940260 108.53226  86.74453 103.56890  86.14036 103.58061  85.17919 108.54397  85.78336
      18 106.06815  85.00032         11.30957   6.940260 108.54397  85.78336 103.58061  85.17919 103.59233  84.21727 108.55569  84.82144
      18 106.07988  84.03803         11.31827   6.940260 108.55569  84.82144 103.59233  84.21727 103.60406  83.25462 108.56742  83.85879
      18 106.09161  83.07500         11.32698   6.940260 108.56742  83.85879 103.60406  83.25462 103.61580  82.29122 108.57916  82.89539
      18 106.10335  82.11124         11.33570   6.940260 108.57916  82.89539 103.61580  82.29122 103.62754  81.32708 108.59091  81.93126
      18 106.11510  81.14673         11.34442   6.940260 108.59091  81.93126 103.62754  81.32708 103.63930  80.36220 108.60266  80.96638
      18 106.12686  80.18148         11.35315   6.940260 108.60266  80.96638 103.63930  80.36220 103.65106  79.39658 108.61442  80.00075
      18 106.13863  79.21549         11.36189   6.940260 108.61442  80.00075 103.65106  79.39658 103.66283  78.43022 108.62620  79.03439
      18 106.15041  78.24875         11.37063   6.940260 108.62620  79.03439 103.66283  78.43022 103.67462  77.46311 108.63798  78.06728
      18 106.16219  77.28127         11.37938   6.940260 108.63798  78.06728 103.67462  77.46311 103.68641  76.49526 108.64977  77.09943
      18 106.17399  76.31304         11.38814   6.940260 108.64977  77.09943 103.68641  76.49526 103.69821  75.52666 108.66157  76.13083
      18 106.18579  75.34407         11.39690   6.940260 108.66157  76.13083 103.69821  75.52666 103.71002  74.55731 108.67338  75.16149
      18 106.19761  74.37436         11.40567   6.940260 108.67338  75.16149 103.71002  74.55731 103.72184  73.58723 108.68520  74.19140
      18 106.20943  73.40389         11.41445   6.940260 108.68520  74.19140 103.72184  73.58723 103.73366  72.61639 108.69703  73.22056
      18 106.22126  72.43269         11.42323   6.940260 108.69703  73.22056 103.73366  72.61639 103.74550  71.64481 108.70886  72.24898
      18 106.23311  71.46073         11.43202   6.940260 108.70886  72.24898 103.74550  71.64481 103.75735  70.67248 108.72071  71.27665
      18 106.24496  70.48802         11.44082   6.940260 108.72071  71.27665 103.75735  70.67248 103.76920  69.69940 108.73257  70.30357
      18 106.25682  69.51457         11.44963   6.940260 108.73257  70.30357 103.76920  69.69940 103.78107  68.72557 108.74443  69.32974
      18 106.26868  68.54037         11.45844   6.940260 108.74443  69.32974 103.78107  68.72557 103.79294  67.75100 108.75630  68.35517
      18 106.28056  67.56542         11.46725   6.940260 108.75630  68.35517 103.79294  67.75100 103.80482  66.77567 108.76819  67.37984
      18 106.29245  66.58972         11.47608   6.940260 108.76819  67.37984 103.80482  66.77567 103.81671  65.79959 108.78008  66.40376
      18 106.30435  65.61326         11.48491   6.940260 108.78008  66.40376 103.81671  65.79959 103.82861  64.82276 108.79198  65.42694
      18 106.31625  64.63606         11.49375   6.940260 108.79198  65.42694 103.82861  64.82276 103.84052  63.84518 108.80389  64.44936
      18 106.32817  63.65810         11.50259   6.940260 108.80389  64.44936 103.84052  63.84518 103.85244  62.86685 108.81581  63.47102
      18 106.34009  62.67939         11.51144   6.940260 108.81581  63.47102 103.85244  62.86685 103.86437  61.88777 108.82773  62.49194
      18 106.35202  61.69993         11.52030   6.940260 108.82773  62.49194 103.86437  61.88777 103.87631  60.90793 108.83967  61.51210
      18 106.36396  60.71972         11.52917   6.940260 108.83967  61.51210 103.87631  60.90793 103.88826  59.92733 108.85162  60.53151
      18 106.37591  59.73875         11.53804   6.940260 108.85162  60.53151 103.88826  59.92733 103.90021  58.94599 108.86357  59.55016
      18 106.38788  58.75702         11.54692   6.940260 108.86357  59.55016 103.90021  58.94599 103.91218  57.96389 108.87554  58.56806
      18 106.39984  57.77454         11.55580   6.940260 108.87554  58.56806 103.91218  57.96389 103.92415  56.98103 108.88751  57.58520
      18 106.41182  56.79131         11.56470   6.940260 108.88751  57.58520 103.92415  56.98103 103.93613  55.99741 108.89950  56.60159
      18 106.42381  55.80731         11.57360   6.940260 108.89950  56.60159 103.93613  55.99741 103.94813  55.01304 108.91149  55.61721
      18 106.43581  54.82256         11.58250   6.940260 108.91149  55.61721 103.94813  55.01304 103.96013  54.02791 108.92349  54.63208
      18 106.44782  53.83706         11.59141   6.940260 108.92349  54.63208 103.96013  54.02791 103.97214  53.04203 108.93550  53.64620
      18 106.45983  52.85079         11.60033   6.940260 108.93550  53.64620 103.97214  53.04203 103.98416  52.05538 108.94752  52.65955
      18 106.47186  51.86376         11.60926   6.940260 108.94752  52.65955 103.98416  52.05538 103.99619  51.06798 108.95955  51.67215
      18 106.48389  50.87598         11.61820   6.940260 108.95955  51.67215 103.99619  51.06798 104.00823  50.07981 108.97159  50.68398
      18 106.49593  49.88743         11.62714   6.940260 108.97159  50.68398 104.00823  50.07981 104.02028  49.09089 108.98364  49.69506
      18 106.50799  48.89813         11.63608   6.940260 108.98364  49.69506 104.02028  49.09089 104.03233  48.10120 108.99570  48.70537
      18 106.52005  47.90806         11.64504   6.940260 108.99570  48.70537 104.03233  48.10120 104.04440  47.11075 109.00776  47.71492
      18 106.53212  46.91723         11.65400   6.940260 109.00776  47.71492 104.04440  47.11075 104.05648  46.11954 109.01984  46.72371
      18 106.54420  45.92564         11.66297   6.940260 109.01984  46.72371 104.05648  46.11954 104.06856  45.12757 109.03192  45.73174
      18 106.55629  44.93329         11.67194   6.940260 109.03192  45.73174 104.06856  45.12757 104.08066  44.13483 109.04402  44.73901
      18 106.56839  43.94017         11.68092   6.940260 109.04402  44.73901 104.08066  44.13483 104.09276  43.14133 109.05612  43.74551
      18 106.58050  42.94629         11.68991   6.940260 109.05612  43.74551 104.09276  43.14133 104.10487  42.14707 109.06824  42.75124
      18 106.59262  41.95164         11.69891   6.940260 109.06824  42.75124 104.10487  42.14707 104.11700  41.15204 109.08036  41.75621
      18 106.60474  40.95623         11.70791   6.940260 109.08036  41.75621 104.11700  41.15204 104.12913  40.15625 109.09249  40.76042
      18 106.61688  39.96005         11.71692   6.940260 109.09249  40.76042 104.12913  40.15625 104.14127  39.15968 109.10463  39.76386
      18 106.62903  38.96311         11.72594   6.940260 109.10463  39.76386 104.14127  39.15968 104.15342  38.16236 109.11678  38.76653
      18 106.64118  37.96539         11.73496   6.940260 109.11678  38.76653 104.15342  38.16236 104.16558  37.16426 109.12894  37.76843
      18 106.65334  36.96691         11.74399   6.940260 109.12894  37.76843 104.16558  37.16426 104.17775  36.16540 109.14111  36.76957
      18 106.66552  35.96767         11.75303   6.940260 109.14111  36.76957 104.17775  36.16540 104.18993  35.16576 109.15329  35.76993
      18 106.67770  34.96765         11.76207   6.940260 109.15329  35.76993 104.18993  35.16576 104.20211  34.16536 109.16548  34.76953
      18 106.68989  33.96686         11.77112   6.940260 109.16548  34.76953 104.20211  34.16536 104.21431  33.16419 109.17767  33.76836
      18 106.70210  32.96530         11.78018   6.940260 109.17767  33.76836 104.21431  33.16419 104.22652  32.16225 109.18988  32.76642
      18 106.71431  31.96298         11.78925   6.940260 109.18988  32.76642 104.22652  32.16225 104.23873  31.15953 109.20210  31.76371
      18 106.72653  30.95988         11.79832   6.940260 109.20210  31.76371 104.23873  31.15953 104.25096  30.15605 109.21432  30.76022
      18 106.73876  29.95601         11.80740   6.940260 109.21432  30.76022 104.25096  30.15605 104.26319  29.15179 109.22656  29.75596
      18 106.75100  28.95136         11.81648   6.940260 109.22656  29.75596 104.26319  29.15179 104.27544  28.14676 109.23880  28.75093
      18 106.76325  27.94595         11.82558   6.940260 109.23880  28.75093 104.27544  28.14676 104.28769  27.14096 109.25106  27.74513
      18 106.77551  26.93976         11.83468   6.940260 109.25106  27.74513 104.28769  27.14096 104.29996  26.13438 109.26332  26.73855
      18 106.78777  25.93279         11.84378   6.940260 109.26332  26.73855 104.29996  26.13438 104.31223  25.12703 109.27559  25.73120
      18 106.80005  24.92505         11.85290   6.940260 109.27559  25.73120 104.31223  25.12703 104.32451  24.11890 109.28787  24.72308
      18 106.81234  23.91654         11.86202   6.940260 109.28787  24.72308 104.32451  24.11890 104.33680  23.11000 109.30017  23.71417
      18 106.82463  22.90725         11.87115   6.940260 109.30017  23.71417 104.33680  23.11000 104.34910  22.10032 109.31247  22.70449
      18 106.83694  21.89718         11.88028   6.940260 109.31247  22.70449 104.34910  22.10032 104.36141  21.08987 109.32478  21.69404
      18 106.84926  20.88634         11.88942   6.940260 109.32478  21.69404 104.36141  21.08987 104.37373  20.07863 109.33710  20.68280
      18 106.86158  19.87471         11.89857   6.940260 109.33710  20.68280 104.37373  20.07863 104.38606  19.06662 109.34943  19.67079
      18 106.87391  18.86231         11.90773   6.940260 109.34943  19.67079 104.38606  19.06662 104.39840  18.05383 109.36176  18.65800
      18 106.88626  17.84913         11.91689   6.940260 109.36176  18.65800 104.39840  18.05383 104.41075  17.04026 109.37411  17.64443
      18 106.89861  16.83517         11.92606   6.940260 109.37411  17.64443 104.41075  17.04026 104.42311  16.02591 109.38647  16.63008
      18 106.91097  15.82043         11.93524   6.940260 109.38647  16.63008 104.42311  16.02591 104.43548  15.01078 109.39884  15.61495
      18 106.92335  14.80491         11.94443   6.940260 109.39884  15.61495 104.43548  15.01078 104.44785  13.99487 109.41122  14.59904
      18 106.93573  13.78861         11.95362   6.940260 109.41122  14.59904 104.44785  13.99487 104.46024  12.97818 109.42360  13.58235
      18 106.94812  12.77152         11.96282   6.940260 109.42360  13.58235 104.46024  12.97818 104.47263  11.96070 109.43600  12.56487
      18 106.96052  11.75366         11.97202   6.940260 109.43600  12.56487 104.47263  11.96070 104.48504  10.94244 109.44840  11.54661
      18 106.97293  10.73501         11.98123   6.940260 109.44840  11.54661 104.48504  10.94244 104.49745   9.92340 109.46082  10.52757
      18 106.98535   9.71557         11.99045   6.940260 109.46082  10.52757 104.49745   9.92340 104.50988   8.90357 109.47324   9.50774
      18 106.99778   8.69535         11.99968   6.940260 109.47324   9.50774 104.50988   8.90357 104.52231   7.88296 109.48568   8.48713
      18 107.01022   7.67435         12.00892   6.940260 109.48568   8.48713 104.52231   7.88296 104.53476   6.86156 109.49812   7.46574
      18 107.02267   6.65256         12.01816   6.940260 109.49812   7.46574 104.53476   6.86156 104.54721   5.83938 109.51057   6.44355
      18 107.03512   5.62998         12.02741   6.940260 109.51057   6.44355 104.54721   5.83938 104.55967   4.81641 109.52304   5.42058
      18 107.04759   4.60662         12.03666   6.940260 109.52304   5.42058 104.55967   4.81641 104.57215   3.79266 109.53551   4.39683
      18 107.06007   3.58247         12.04592   6.940260 109.53551   4.39683 104.57215   3.79266 104.58463   2.76811 109.54799   3.37228
      18 107.07256   2.55753         12.05519   6.940260 109.54799   3.37228 104.58463   2.76811 104.59712   1.74278 109.56048   2.34695
      18 107.08505   1.53180         12.06447   6.940260 109.56048   2.34695 104.59712   1.74278 104.60962   0.71666 109.57298   1.32083
      18 107.09756   0.50529         12.07375   6.940260 109.57298   1.32083 104.60962   0.71666 104.62213  -0.31025 109.58550   0.29392
      17  96.78488 127.39573         11.65400   7.292520  99.26076 128.23245  94.30121 127.59778  94.30900 126.55900  99.26855 127.19367
      17  96.79267 126.35655         11.66297   7.292520  99.26855 127.19367  94.30900 126.55900  94.31679 125.51942  99.27635 126.15409
      17  96.80047 125.31657         11.67194   7.292520  99.27635 126.15409  94.31679 125.51942  94.32460 124.47904  99.28415 125.11372
      17  96.80828 124.27579         11.68092   7.292520  99.28415 125.11372  94.32460 124.47904  94.33240 123.43786  99.29196 124.07253
      17  96.81609 123.23421         11.68991   7.292520  99.29196 124.07253  94.33240 123.43786  94.34022 122.39588  99.29977 123.03055
      17  96.82391 122.19182         11.69891   7.292520  99.29977 123.03055  94.34022 122.39588  94.34804 121.35309  99.30759 121.98777
      17  96.83173 121.14864         11.70791   7.292520  99.30759 121.98777  94.34804 121.35309  94.35586 120.30951  99.31542 120.94418
      17  96.83956 120.10465         11.71692   7.292520  99.31542 120.94418  94.35586 120.30951  94.36370 119.26512  99.32325 119.89980
      17  96.84739 119.05986         11.72594   7.292520  99.32325 119.89980  94.36370 119.26512  94.37153 118.21993  99.33109 118.85460
      17  96.85523 118.01427         11.73496   7.292520  99.33109 118.85460  94.37153 118.21993  94.37938 117.17393  99.33893 117.80861
      17  96.86308 116.96787         11.74399   7.292520  99.33893 117.80861  94.37938 117.17393  94.38723 116.12713  99.34678 116.76181
      17  96.87093 115.92066         11.75303   7.292520  99.34678 116.76181  94.38723 116.12713  94.39509 115.07952  99.35464 115.71420
      17  96.87879 114.87265         11.76207   7.292520  99.35464 115.71420  94.39509 115.07952  94.40295 114.03111  99.36250 114.66578
      17  96.88666 113.82384         11.77112   7.292520  99.36250 114.66578  94.40295 114.03111  94.41082 112.98189  99.37037 113.61656
      17  96.89453 112.77421         11.78018   7.292520  99.37037 113.61656  94.41082 112.98189  94.41869 111.93186  99.37825 112.56654
      17  96.90241 111.72378         11.78925   7.292520  99.37825 112.56654  94.41869 111.93186  94.42657 110.88103  99.38613 111.51570
      17  96.91029 110.67254         11.79832   7.292520  99.38613 111.51570  94.42657 110.88103  94.43446 109.82938  99.39401 110.46406
      17  96.91818 109.62049         11.80740   7.292520  99.39401 110.46406  94.43446 109.82938  94.44235 108.77693  99.40190 109.41160
      17  96.92608 108.56763         11.81648   7.292520  99.40190 109.41160  94.44235 108.77693  94.45025 107.72366  99.40980 108.35834
      17  96.93398 107.51397         11.82558   7.292520  99.40980 108.35834  94.45025 107.72366  94.45815 106.66959  99.41771 107.30427
      17  96.94189 106.45949         11.83468   7.292520  99.41771 107.30427  94.45815 106.66959  94.46606 105.61471  99.42562 106.24938
      17  96.94980 105.40420         11.84378   7.292520  99.42562 106.24938  94.46606 105.61471  94.47398 104.55901  99.43354 105.19368
      17  96.95772 104.34809         11.85290   7.292520  99.43354 105.19368  94.47398 104.55901  94.48190 103.50250  99.44146 104.13718
      17  96.96565 103.29118         11.86202   7.292520  99.44146 104.13718  94.48190 103.50250  94.48983 102.44518  99.44939 103.07985
      17  96.97358 102.23345         11.87115   7.292520  99.44939 103.07985  94.48983 102.44518  94.49777 101.38704  99.45732 102.02172
      17  96.98152 101.17490         11.88028   7.292520  99.45732 102.02172  94.49777 101.38704  94.50571 100.32809  99.46526 100.96277
      17  96.98946 100.11555         11.88942   7.292520  99.46526 100.96277  94.50571 100.32809  94.51366  99.26833  99.47321  99.90300
      17  96.99741  99.05537         11.89857   7.292520  99.47321  99.90300  94.51366  99.26833  94.52161  98.20775  99.48117  98.84242
      17  97.00537  97.99439         11.90773   7.292520  99.48117  98.84242  94.52161  98.20775  94.52957  97.14635  99.48913  97.78103
      17  97.01333  96.93258         11.91689   7.292520  99.48913  97.78103  94.52957  97.14635  94.53754  96.08414  99.49709  96.71881
      17  97.02130  95.86996         11.92606   7.292520  99.49709  96.71881  94.53754  96.08414  94.54551  95.02111  99.50506  95.65578
      17  97.02927  94.80652         11.93524   7.292520  99.50506  95.65578  94.54551  95.02111  94.55349  93.95726  99.51304  94.59193
      17  97.03726  93.74226         11.94443   7.292520  99.51304  94.59193  94.55349  93.95726  94.56147  92.89259  99.52103  93.52726
      17  97.04524  92.67718         11.95362   7.292520  99.52103  93.52726  94.56147  92.89259  94.56946  91.82710  99.52902  92.46178
      17  97.05324  91.61129         11.96282   7.292520  99.52902  92.46178  94.56946  91.82710  94.57746  90.76080  99.53701  91.39547
      17  97.06124  90.54457         11.97202   7.292520  99.53701  91.39547  94.57746  90.76080  94.58546  89.69367  99.54501  90.32834
      17  97.06924  89.47703         11.98123   7.292520  99.54501  90.32834  94.58546  89.69367  94.59347  88.62572  99.55302  89.26040
      17  97.07725  88.40867         11.99045   7.292520  99.55302  89.26040  94.59347  88.62572  94.60148  87.55695  99.56104  88.19163
      17  97.08527  87.33949         11.99968   7.292520  99.56104  88.19163  94.60148  87.55695  94.60950  86.48736  99.56906  87.12203
      17  97.09330  86.26949         12.00892   7.292520  99.56906  87.12203  94.60950  86.48736  94.61753  85.41694  99.57709  86.05162
      17  97.10133  85.19866         12.01816   7.292520  99.57709  86.05162  94.61753  85.41694  94.62557  84.34570  99.58512  84.98038
      17  97.10936  84.12701         12.02741   7.292520  99.58512  84.98038  94.62557  84.34570  94.63361  83.27364  99.59316  83.90831
      17  97.11741  83.05453         12.03666   7.292520  99.59316  83.90831  94.63361  83.27364  94.64165  82.20075  99.60121  82.83542
      17  97.12545  81.98123         12.04592   7.292520  99.60121  82.83542  94.64165  82.20075  94.64970  81.12703  99.60926  81.76171
      17  97.13351  80.90710         12.05519   7.292520  99.60926  81.76171  94.64970  81.12703  94.65776  80.05249  99.61732  80.68717
      17  97.14157  79.83215         12.06447   7.292520  99.61732  80.68717  94.65776  80.05249  94.66583  78.97713  99.62538  79.61180
      17  97.14964  78.75637         12.07375   7.292520  99.62538  79.61180  94.66583  78.97713  94.67390  77.90093  99.63345  78.53561
      17  97.15771  77.67976         12.08304   7.292520  99.63345  78.53561  94.67390  77.90093  94.68197  76.82391  99.64153  77.45858
      17  97.16579  76.60232         12.09234   7.292520  99.64153  77.45858  94.68197  76.82391  94.69006  75.74606  99.64961  76.38073
      17  97.17388  75.52405         12.10165   7.292520  99.64961  76.38073  94.69006  75.74606  94.69815  74.66737  99.65770  75.30205
      17  97.18197  74.44496         12.11096   7.292520  99.65770  75.30205  94.69815  74.66737  94.70624  73.58786  99.66580  74.22254
      17  97.19007  73.36503         12.12028   7.292520  99.66580  74.22254  94.70624  73.58786  94.71434  72.50752  99.67390  73.14220
      17  97.19817  72.28427         12.12961   7.292520  99.67390  73.14220  94.71434  72.50752  94.72245  71.42635  99.68201  72.06102
      17  97.20629  71.20268         12.13894   7.292520  99.68201  72.06102  94.72245  71.42635  94.73056  70.34434  99.69012  70.97902
      17  97.21440  70.12026         12.14828   7.292520  99.69012  70.97902  94.73056  70.34434  94.73869  69.26150  99.69824  69.89618
      17  97.22253  69.03701         12.15763   7.292520  99.69824  69.89618  94.73869  69.26150  94.74681  68.17783  99.70637  68.81251
      17  97.23066  67.95292         12.16699   7.292520  99.70637  68.81251  94.74681  68.17783  94.75495  67.09333  99.71450  67.72800
      17  97.23879  66.86799         12.17635   7.292520  99.71450  67.72800  94.75495  67.09333  94.76308  66.00799  99.72264  66.64266
      17  97.24693  65.78224         12.18572   7.292520  99.72264  66.64266  94.76308  66.00799  94.77123  64.92181  99.73078  65.55649
      17  97.25508  64.69564         12.19510   7.292520  99.73078  65.55649  94.77123  64.92181  94.77938  63.83480  99.73894  64.46948
      17  97.26324  63.60821         12.20448   7.292520  99.73894  64.46948  94.77938  63.83480  94.78754  62.74695  99.74709  63.38163
      17  97.27140  62.51995         12.21387   7.292520  99.74709  63.38163  94.78754  62.74695  94.79570  61.65827  99.75526  62.29294
      17  97.27957  61.43084         12.22327   7.292520  99.75526  62.29294  94.79570  61.65827  94.80387  60.56875  99.76343  61.20342
      17  97.28774  60.34090         12.23268   7.292520  99.76343  61.20342  94.80387  60.56875  94.81205  59.47838  99.77161  60.11306
      17  97.29592  59.25012         12.24209   7.292520  99.77161  60.11306  94.81205  59.47838  94.82023  58.38718  99.77979  59.02186
      17  97.30411  58.15850         12.25151   7.292520  99.77979  59.02186  94.82023  58.38718  94.82842  57.29515  99.78798  57.92982
      17  97.31230  57.06604         12.26094   7.292520  99.78798  57.92982  94.82842  57.29515  94.83662  56.20227  99.79617  56.83694
      17  97.32050  55.97274         12.27037   7.292520  99.79617  56.83694  94.83662  56.20227  94.84482  55.10854  99.80438  55.74322
      17  97.32870  54.87860         12.27982   7.292520  99.80438  55.74322  94.84482  55.10854  94.85303  54.01398  99.81259  54.64866
      17  97.33692  53.78362         12.28927   7.292520  99.81259  54.64866  94.85303  54.01398  94.86124  52.91858  99.82080  53.55325
      17  97.34513  52.68779         12.29872   7.292520  99.82080  53.55325  94.86124  52.91858  94.86947  51.82233  99.82902  52.45700
      17  97.35336  51.59112         12.30819   7.292520  99.82902  52.45700  94.86947  51.82233  94.87769  50.72524  99.83725  51.35991
      17  97.36159  50.49361         12.31766   7.292520  99.83725  51.35991  94.87769  50.72524  94.88593  49.62730  99.84548  50.26198
      17  97.36982  49.39525         12.32714   7.292520  99.84548  50.26198  94.88593  49.62730  94.89417  48.52852  99.85372  49.16320
      17  97.37807  48.29605         12.33662   7.292520  99.85372  49.16320  94.89417  48.52852  94.90241  47.42889  99.86197  48.06357
      17  97.38632  47.19600         12.34612   7.292520  99.86197  48.06357  94.90241  47.42889  94.91067  46.32842  99.87022  46.96310
      17  97.39457  46.09510         12.35562   7.292520  99.87022  46.96310  94.91067  46.32842  94.91893  45.22710  99.87848  45.86178
      17  97.40284  44.99336         12.36513   7.292520  99.87848  45.86178  94.91893  45.22710  94.92719  44.12494  99.88675  44.75961
      17  97.41110  43.89077         12.37464   7.292520  99.88675  44.75961  94.92719  44.12494  94.93546  43.02192  99.89502  43.65660
      17  97.41938  42.78733         12.38416   7.292520  99.89502  43.65660  94.93546  43.02192  94.94374  41.91806  99.90330  42.55273
      17  97.42766  41.68304         12.39369   7.292520  99.90330  42.55273  94.94374  41.91806  94.95202  40.81335  99.91158  41.44802
      17  97.43595  40.57790         12.40323   7.292520  99.91158  41.44802  94.95202  40.81335  94.96032  39.70778  99.91987  40.34246
      17  97.44424  39.47191         12.41278   7.292520  99.91987  40.34246  94.96032  39.70778  94.96861  38.60137  99.92817  39.23604
      17  97.45254  38.36507         12.42233   7.292520  99.92817  39.23604  94.96861  38.60137  94.97692  37.49410  99.93647  38.12878
      17  97.46085  37.25738         12.43189   7.292520  99.93647  38.12878  94.97692  37.49410  94.98523  36.38599  99.94478  37.02066
      17  97.46916  36.14884         12.44145   7.292520  99.94478  37.02066  94.98523  36.38599  94.99354  35.27702  99.95310  35.91169
      17  97.47748  35.03944         12.45103   7.292520  99.95310  35.91169  94.99354  35.27702  95.00187  34.16719  99.96142  34.80187
      17  97.48581  33.92919         12.46061   7.292520  99.96142  34.80187  95.00187  34.16719  95.01020  33.05651  99.96975  33.69119
      17  97.49414  32.81809         12.47020   7.292520  99.96975  33.69119  95.01020  33.05651  95.01853  31.94498  99.97809  32.57966
      17  97.50248  31.70613         12.47979   7.292520  99.97809  32.57966  95.01853  31.94498  95.02687  30.83259  99.98643  31.46727
      17  97.51082  30.59331         12.48940   7.292520  99.98643  31.46727  95.02687  30.83259  95.03522  29.71935  99.99478  30.35403
      17  97.51918  29.47964         12.49901   7.292520  99.99478  30.35403  95.03522  29.71935  95.04358  28.60525 100.00313  29.23993
      17  97.52753  28.36511         12.50863   7.292520 100.00313  29.23993  95.04358  28.60525  95.05194  27.49029 100.01149  28.12497
      17  97.53590  27.24972         12.51825   7.292520 100.01149  28.12497  95.05194  27.49029  95.06031  26.37448 100.01986  27.00915
      17  97.54427  26.13348         12.52789   7.292520 100.01986  27.00915  95.06031  26.37448  95.06868  25.25780 100.02823  25.89248
      17  97.55265  25.01637         12.53753   7.292520 100.02823  25.89248  95.06868  25.25780  95.07706  24.14027 100.03662  24.77495
      17  97.56103  23.89841         12.54717   7.292520 100.03662  24.77495  95.07706  24.14027  95.08545  23.02188 100.04500  23.65655
      17  97.56942  22.77959         12.55683   7.292520 100.04500  23.65655  95.08545  23.02188  95.09384  21.90262 100.05340  22.53730
      17  97.57782  21.65990         12.56649   7.292520 100.05340  22.53730  95.09384  21.90262  95.10224  20.78251 100.06180  21.41718
      17  97.58622  20.53936         12.57616   7.292520 100.06180  21.41718  95.10224  20.78251  95.11065  19.66153 100.07020  20.29620
      17  97.59463  19.41795         12.58584   7.292520 100.07020  20.29620  95.11065  19.66153  95.11906  18.53969 100.07862  19.17436
      17  97.60305  18.29568         12.59553   7.292520 100.07862  19.17436  95.11906  18.53969  95.12748  17.41699 100.08703  18.05166
      17  97.61147  17.17254         12.60522   7.292520 100.08703  18.05166  95.12748  17.41699  95.13591  16.29342 100.09546  16.92809
      17  97.61990  16.04854         12.61492   7.292520 100.09546  16.92809  95.13591  16.29342  95.14434  15.16899 100.10389  15.80366
      17  97.62834  14.92368         12.62463   7.292520 100.10389  15.80366  95.14434  15.16899  95.15278  14.04369 100.11233  14.67836
      17  97.63678  13.79795         12.63434   7.292520 100.11233  14.67836  95.15278  14.04369  95.16122  12.91753 100.12078  13.55220
      17  97.64523  12.67135         12.64406   7.292520 100.12078  13.55220  95.16122  12.91753  95.16967  11.79050 100.12923  12.42517
      17  97.65368  11.54389         12.65379   7.292520 100.12923  12.42517  95.16967  11.79050  95.17813  10.66260 100.13769  11.29728
      17  97.66214  10.41555         12.66353   7.292520 100.13769  11.29728  95.17813  10.66260  95.18660   9.53383 100.14615  10.16851
      17  97.67061   9.28636         12.67328   7.292520 100.14615  10.16851  95.18660   9.53383  95.19507   8.40420 100.15462   9.03888
      17  97.67909   8.15629         12.68303   7.292520 100.15462   9.03888  95.19507   8.40420  95.20355   7.27370 100.16310   7.90837
      17  97.68757   7.02535         12.69279   7.292520 100.16310   7.90837  95.20355   7.27370  95.21203   6.14233 100.17159   6.77700
      17  97.69605   5.89354         12.70256   7.292520 100.17159   6.77700  95.21203   6.14233  95.22052   5.01008 100.18008   5.64476
      17  97.70455   4.76086         12.71233   7.292520 100.18008   5.64476  95.22052   5.01008  95.22902   3.87697 100.18857   4.51164
      17  97.71305   3.62731         12.72211   7.292520 100.18857   4.51164  95.22902   3.87697  95.23752   2.74298 100.19708   3.37766
      17  97.72156   2.49289         12.73190   7.292520 100.19708   3.37766  95.23752   2.74298  95.24603   1.60812 100.20559   2.24280
      17  97.73007   1.35759         12.74170   7.292520 100.20559   2.24280  95.24603   1.60812  95.25455   0.47239 100.21411   1.10706
      17  97.73859   0.22142         12.75151   7.292520 100.21411   1.10706  95.25455   0.47239  95.26308  -0.66422 100.22263  -0.02954
      16  87.33639 127.12349         12.31766   7.726600  89.81834 127.94231  84.86373 127.27008  84.85444 126.30468  89.80905 126.97691
      16  87.32710 126.15772         12.32714   7.726600  89.80905 126.97691  84.85444 126.30468  84.84515 125.33854  89.79975 126.01077
      16  87.31780 125.19121         12.33662   7.726600  89.79975 126.01077  84.84515 125.33854  84.83584 124.37165  89.79045 125.04389
      16  87.30849 124.22396         12.34612   7.726600  89.79045 125.04389  84.83584 124.37165  84.82653 123.40403  89.78114 124.07626
      16  87.29918 123.25596         12.35562   7.726600  89.78114 124.07626  84.82653 123.40403  84.81722 122.43565  89.77182 123.10789
      16  87.28986 122.28721         12.36513   7.726600  89.77182 123.10789  84.81722 122.43565  84.80789 121.46654  89.76249 122.13877
      16  87.28053 121.31772         12.37464   7.726600  89.76249 122.13877  84.80789 121.46654  84.79856 120.49667  89.75316 121.16890
      16  87.27119 120.34748         12.38416   7.726600  89.75316 121.16890  84.79856 120.49667  84.78922 119.52606  89.74382 120.19829
      16  87.26185 119.37650         12.39369   7.726600  89.74382 120.19829  84.78922 119.52606  84.77987 118.55471  89.73448 119.22694
      16  87.25250 118.40477         12.40323   7.726600  89.73448 119.22694  84.77987 118.55471  84.77052 117.58260  89.72512 118.25483
      16  87.24314 117.43229         12.41278   7.726600  89.72512 118.25483  84.77052 117.58260  84.76116 116.60975  89.71576 117.28198
      16  87.23378 116.45907         12.42233   7.726600  89.71576 117.28198  84.76116 116.60975  84.75179 115.63615  89.70639 116.30838
      16  87.22440 115.48509         12.43189   7.726600  89.70639 116.30838  84.75179 115.63615  84.74241 114.66180  89.69702 115.33403
      16  87.21502 114.51037         12.44145   7.726600  89.69702 115.33403  84.74241 114.66180  84.73303 113.68670  89.68764 114.35893
      16  87.20564 113.53489         12.45103   7.726600  89.68764 114.35893  84.73303 113.68670  84.72364 112.71085  89.67825 113.38308
      16  87.19624 112.55867         12.46061   7.726600  89.67825 113.38308  84.72364 112.71085  84.71424 111.73425  89.66885 112.40648
      16  87.18684 111.58169         12.47020   7.726600  89.66885 112.40648  84.71424 111.73425  84.70484 110.75690  89.65944 111.42913
      16  87.17744 110.60396         12.47979   7.726600  89.65944 111.42913  84.70484 110.75690  84.69543 109.77879  89.65003 110.45102
      16  87.16802 109.62548         12.48940   7.726600  89.65003 110.45102  84.69543 109.77879  84.68601 108.79993  89.64061 109.47217
      16  87.15860 108.64625         12.49901   7.726600  89.64061 109.47217  84.68601 108.79993  84.67658 107.82032  89.63119 108.49256
      16  87.14917 107.66626         12.50863   7.726600  89.63119 108.49256  84.67658 107.82032  84.66715 106.83996  89.62175 107.51219
      16  87.13973 106.68552         12.51825   7.726600  89.62175 107.51219  84.66715 106.83996  84.65771 105.85884  89.61231 106.53107
      16  87.13029 105.70402         12.52789   7.726600  89.61231 106.53107  84.65771 105.85884  84.64826 104.87697  89.60287 105.54920
      16  87.12084 104.72177         12.53753   7.726600  89.60287 105.54920  84.64826 104.87697  84.63881 103.89434  89.59341 104.56657
      16  87.11138 103.73876         12.54717   7.726600  89.59341 104.56657  84.63881 103.89434  84.62934 102.91095  89.58395 103.58318
      16  87.10191 102.75500         12.55683   7.726600  89.58395 103.58318  84.62934 102.91095  84.61987 101.92681  89.57448 102.59904
      16  87.09244 101.77048         12.56649   7.726600  89.57448 102.59904  84.61987 101.92681  84.61040 100.94191  89.56500 101.61414
      16  87.08296 100.78520         12.57616   7.726600  89.56500 101.61414  84.61040 100.94191  84.60091  99.95625  89.55552 100.62848
      16  87.07347  99.79916         12.58584   7.726600  89.55552 100.62848  84.60091  99.95625  84.59142  98.96984  89.54603  99.64207
      16  87.06397  98.81236         12.59553   7.726600  89.54603  99.64207  84.59142  98.96984  84.58192  97.98266  89.53653  98.65489
      16  87.05447  97.82481         12.60522   7.726600  89.53653  98.65489  84.58192  97.98266  84.57242  96.99473  89.52702  97.66696
      16  87.04496  96.83649         12.61492   7.726600  89.52702  97.66696  84.57242  96.99473  84.56290  96.00603  89.51751  96.67826
      16  87.03544  95.84742         12.62463   7.726600  89.51751  96.67826  84.56290  96.00603  84.55338  95.01658  89.50799  95.68881
      16  87.02592  94.85758         12.63434   7.726600  89.50799  95.68881  84.55338  95.01658  84.54385  94.02636  89.49846  94.69859
      16  87.01639  93.86698         12.64406   7.726600  89.49846  94.69859  84.54385  94.02636  84.53432  93.03538  89.48892  93.70761
      16  87.00685  92.87562         12.65379   7.726600  89.48892  93.70761  84.53432  93.03538  84.52478  92.04364  89.47938  92.71587
      16  86.99730  91.88350         12.66353   7.726600  89.47938  92.71587  84.52478  92.04364  84.51523  91.05113  89.46983  91.72336
      16  86.98775  90.89061         12.67328   7.726600  89.46983  91.72336  84.51523  91.05113  84.50567  90.05786  89.46027  90.73010
      16  86.97819  89.89696         12.68303   7.726600  89.46027  90.73010  84.50567  90.05786  84.49610  89.06383  89.45071  89.73606
      16  86.96862  88.90255         12.69279   7.726600  89.45071  89.73606  84.49610  89.06383  84.48653  88.06903  89.44114  88.74126
      16  86.95904  87.90737         12.70256   7.726600  89.44114  88.74126  84.48653  88.06903  84.47695  87.07347  89.43156  87.74570
      16  86.94946  86.91142         12.71233   7.726600  89.43156  87.74570  84.47695  87.07347  84.46736  86.07714  89.42197  86.74937
      16  86.93987  85.91471         12.72211   7.726600  89.42197  86.74937  84.46736  86.07714  84.45777  85.08004  89.41237  85.75227
      16  86.93027  84.91723         12.73190   7.726600  89.41237  85.75227  84.45777  85.08004  84.44817  84.08218  89.40277  84.75441
      16  86.92067  83.91898         12.74170   7.726600  89.40277  84.75441  84.44817  84.08218  84.43856  83.08355  89.39316  83.75578
      16  86.91105  82.91996         12.75151   7.726600  89.39316  83.75578  84.43856  83.08355  84.42894  82.08415  89.38355  82.75638
      16  86.90143  81.92018         12.76132   7.726600  89.38355  82.75638  84.42894  82.08415  84.41932  81.08398  89.37392  81.75621
      16  86.89181  80.91963         12.77114   7.726600  89.37392  81.75621  84.41932  81.08398  84.40969  80.08304  89.36429  80.75527
      16  86.88217  79.91830         12.78097   7.726600  89.36429  80.75527  84.40969  80.08304  84.40005  79.08133  89.35465  79.75356
      16  86.87253  78.91621         12.79080   7.726600  89.35465  79.75356  84.40005  79.08133  84.39040  78.07885  89.34501  78.75108
      16  86.86288  77.91334         12.80064   7.726600  89.34501  78.75108  84.39040  78.07885  84.38075  77.07560  89.33535  77.74783
      16  86.85322  76.90970         12.81049   7.726600  89.33535  77.74783  84.38075  77.07560  84.37109  76.07158  89.32569  76.74381
      16  86.84356  75.90529         12.82035   7.726600  89.32569  76.74381  84.37109  76.07158  84.36142  75.06678  89.31602  75.73901
      16  86.83388  74.90011         12.83022   7.726600  89.31602  75.73901  84.36142  75.06678  84.35174  74.06121  89.30635  74.73344
      16  86.82420  73.89416         12.84009   7.726600  89.30635  74.73344  84.35174  74.06121  84.34206  73.05487  89.29666  73.72710
      16  86.81452  72.88743         12.84997   7.726600  89.29666  73.72710  84.34206  73.05487  84.33237  72.04775  89.28697  72.71998
      16  86.80482  71.87992         12.85986   7.726600  89.28697  72.71998  84.33237  72.04775  84.32267  71.03986  89.27728  71.71209
      16  86.79512  70.87164         12.86976   7.726600  89.27728  71.71209  84.32267  71.03986  84.31297  70.03119  89.26757  70.70342
      16  86.78541  69.86258         12.87966   7.726600  89.26757  70.70342  84.31297  70.03119  84.30325  69.02175  89.25786  69.69398
      16  86.77569  68.85275         12.88957   7.726600  89.25786  69.69398  84.30325  69.02175  84.29353  68.01153  89.24814  68.68376
      16  86.76597  67.84214         12.89949   7.726600  89.24814  68.68376  84.29353  68.01153  84.28380  67.00053  89.23841  67.67276
      16  86.75624  66.83075         12.90942   7.726600  89.23841  67.67276  84.28380  67.00053  84.27407  65.98875  89.22867  66.66098
      16  86.74650  65.81859         12.91935   7.726600  89.22867  66.66098  84.27407  65.98875  84.26433  64.97620  89.21893  65.64843
      16  86.73675  64.80564         12.92929   7.726600  89.21893  65.64843  84.26433  64.97620  84.25457  63.96286  89.20918  64.63509
      16  86.72700  63.79192         12.93924   7.726600  89.20918  64.63509  84.25457  63.96286  84.24482  62.94875  89.19942  63.62098
      16  86.71724  62.77742         12.94920   7.726600  89.19942  63.62098  84.24482  62.94875  84.23505  61.93385  89.18966  62.60609
      16  86.70747  61.76213         12.95916   7.726600  89.18966  62.60609  84.23505  61.93385  84.22528  60.91818  89.17988  61.59041
      16  86.69769  60.74607         12.96914   7.726600  89.17988  61.59041  84.22528  60.91818  84.21550  59.90172  89.17010  60.57395
      16  86.68791  59.72922         12.97912   7.726600  89.17010  60.57395  84.21550  59.90172  84.20571  58.88448  89.16031  59.55671
      16  86.67811  58.71159         12.98910   7.726600  89.16031  59.55671  84.20571  58.88448  84.19591  57.86646  89.15052  58.53869
      16  86.66831  57.69317         12.99910   7.726600  89.15052  58.53869  84.19591  57.86646  84.18611  56.84766  89.14071  57.51989
      16  86.65851  56.67398         13.00910   7.726600  89.14071  57.51989  84.18611  56.84766  84.17630  55.82807  89.13090  56.50030
      16  86.64869  55.65399         13.01911   7.726600  89.13090  56.50030  84.17630  55.82807  84.16648  54.80769  89.12109  55.47992
      16  86.63887  54.63323         13.02913   7.726600  89.12109  55.47992  84.16648  54.80769  84.15666  53.78653  89.11126  54.45876
      16  86.62904  53.61168         13.03916   7.726600  89.11126  54.45876  84.15666  53.78653  84.14682  52.76459  89.10143  53.43682
      16  86.61920  52.58934         13.04919   7.726600  89.10143  53.43682  84.14682  52.76459  84.13698  51.74186  89.09159  52.41409
      16  86.60936  51.56621         13.05923   7.726600  89.09159  52.41409  84.13698  51.74186  84.12713  50.71834  89.08174  51.39057
      16  86.59951  50.54230         13.06928   7.726600  89.08174  51.39057  84.12713  50.71834  84.11728  49.69403  89.07188  50.36626
      16  86.58965  49.51760         13.07934   7.726600  89.07188  50.36626  84.11728  49.69403  84.10741  48.66894  89.06202  49.34117
      16  86.57978  48.49211         13.08941   7.726600  89.06202  49.34117  84.10741  48.66894  84.09754  47.64306  89.05215  48.31529
      16  86.56990  47.46584         13.09948   7.726600  89.05215  48.31529  84.09754  47.64306  84.08766  46.61638  89.04227  47.28861
      16  86.56002  46.43877         13.10956   7.726600  89.04227  47.28861  84.08766  46.61638  84.07778  45.58892  89.03238  46.26115
      16  86.55013  45.41091         13.11965   7.726600  89.03238  46.26115  84.07778  45.58892  84.06788  44.56067  89.02249  45.23290
      16  86.54023  44.38226         13.12974   7.726600  89.02249  45.23290  84.06788  44.56067  84.05798  43.53162  89.01258  44.20385
      16  86.53033  43.35282         13.13985   7.726600  89.01258  44.20385  84.05798  43.53162  84.04807  42.50179  89.00267  43.17402
      16  86.52041  42.32259         13.14996   7.726600  89.00267  43.17402  84.04807  42.50179  84.03815  41.47116  88.99276  42.14339
      16  86.51049  41.29156         13.16008   7.726600  88.99276  42.14339  84.03815  41.47116  84.02823  40.43974  88.98283  41.11197
      16  86.50056  40.25974         13.17020   7.726600  88.98283  41.11197  84.02823  40.43974  84.01830  39.40752  88.97290  40.07975
      16  86.49063  39.22713         13.18034   7.726600  88.97290  40.07975  84.01830  39.40752  84.00836  38.37451  88.96296  39.04674
      16  86.48069  38.19372         13.19048   7.726600  88.96296  39.04674  84.00836  38.37451  83.99841  37.34071  88.95301  38.01294
      16  86.47073  37.15952         13.20063   7.726600  88.95301  38.01294  83.99841  37.34071  83.98845  36.30611  88.94306  36.97834
      16  86.46077  36.12452         13.21079   7.726600  88.94306  36.97834  83.98845  36.30611  83.97849  35.27071  88.93310  35.94294
      16  86.45081  35.08873         13.22096   7.726600  88.93310  35.94294  83.97849  35.27071  83.96852  34.23452  88.92312  34.90675
      16  86.44083  34.05214         13.23113   7.726600  88.92312  34.90675  83.96852  34.23452  83.95854  33.19753  88.91315  33.86976
      16  86.43085  33.01475         13.24131   7.726600  88.91315  33.86976  83.95854  33.19753  83.94856  32.15974  88.90316  32.83197
      16  86.42086  31.97656         13.25150   7.726600  88.90316  32.83197  83.94856  32.15974  83.93856  31.12115  88.89317  31.79338
      16  86.41086  30.93757         13.26170   7.726600  88.89317  31.79338  83.93856  31.12115  83.92856  30.08176  88.88317  30.75399
      16  86.40086  29.89779         13.27190   7.726600  88.88317  30.75399  83.92856  30.08176  83.91855  29.04158  88.87316  29.71381
      16  86.39085  28.85720         13.28212   7.726600  88.87316  29.71381  83.91855  29.04158  83.90854  28.00059  88.86314  28.67282
      16  86.38083  27.81581         13.29234   7.726600  88.86314  28.67282  83.90854  28.00059  83.89851  26.95880  88.85312  27.63103
      16  86.37080  26.77362         13.30257   7.726600  88.85312  27.63103  83.89851  26.95880  83.88848  25.91621  88.84308  26.58844
      16  86.36076  25.73063         13.31280   7.726600  88.84308  26.58844  83.88848  25.91621  83.87844  24.87282  88.83304  25.54505
      16  86.35072  24.68684         13.32305   7.726600  88.83304  25.54505  83.87844  24.87282  83.86839  23.82863  88.82300  24.50086
      16  86.34067  23.64224         13.33330   7.726600  88.82300  24.50086  83.86839  23.82863  83.85834  22.78363  88.81294  23.45586
      16  86.33061  22.59684         13.34356   7.726600  88.81294  23.45586  83.85834  22.78363  83.84827  21.73783  88.80288  22.41006
      16  86.32054  21.55064         13.35383   7.726600  88.80288  22.41006  83.84827  21.73783  83.83820  20.69122  88.79281  21.36345
      16  86.31047  20.50363         13.36411   7.726600  88.79281  21.36345  83.83820  20.69122  83.82812  19.64381  88.78273  20.31604
      16  86.30038  19.45581         13.37439   7.726600  88.78273  20.31604  83.82812  19.64381  83.81804  18.59559  88.77264  19.26782
      16  86.29029  18.40719         13.38468   7.726600  88.77264  19.26782  83.81804  18.59559  83.80794  17.54656  88.76255  18.21879
      16  86.28020  17.35776         13.39498   7.726600  88.76255  18.21879  83.80794  17.54656  83.79784  16.49673  88.75245  17.16896
      16  86.27009  16.30752         13.40529   7.726600  88.75245  17.16896  83.79784  16.49673  83.78773  15.44609  88.74234  16.11832
      16  86.25998  15.25648         13.41560   7.726600  88.74234  16.11832  83.78773  15.44609  83.77762  14.39464  88.73222  15.06687
      16  86.24986  14.20463         13.42593   7.726600  88.73222  15.06687  83.77762  14.39464  83.76749  13.34238  88.72210  14.01461
      16  86.23973  13.15196         13.43626   7.726600  88.72210  14.01461  83.76749  13.34238  83.75736  12.28931  88.71196  12.96155
      16  86.22959  12.09849         13.44660   7.726600  88.71196  12.96155  83.75736  12.28931  83.74722  11.23544  88.70182  11.90767
      16  86.21945  11.04421         13.45695   7.726600  88.70182  11.90767  83.74722  11.23544  83.73707  10.18075  88.69167  10.85298
      16  86.20929   9.98911         13.46730   7.726600  88.69167  10.85298  83.73707  10.18075  83.72691   9.12525  88.68152   9.79748
      16  86.19913   8.93321         13.47767   7.726600  88.68152   9.79748  83.72691   9.12525  83.71675   8.06893  88.67135   8.74116
      16  86.18896   7.87649         13.48804   7.726600  88.67135   8.74116  83.71675   8.06893  83.70658   7.01181  88.66118   7.68404
      16  86.17879   6.81895         13.49842   7.726600  88.66118   7.68404  83.70658   7.01181  83.69640   5.95387  88.65100   6.62610
      16  86.16860   5.76061         13.50880   7.726600  88.65100   6.62610  83.69640   5.95387  83.68621   4.89511  88.64081   5.56735
      16  86.15841   4.70145         13.51920   7.726600  88.64081   5.56735  83.68621   4.89511  83.67601   3.83555  88.63062   4.50778
      16  86.14821   3.64147         13.52960   7.726600  88.63062   4.50778  83.67601   3.83555  83.66581   2.77516  88.62041   3.44739
      16  86.13801   2.58068         13.54001   7.726600  88.62041   3.44739  83.66581   2.77516  83.65560   1.71396  88.61020   2.38620
      16  86.12779   1.51907         13.55043   7.726600  88.61020   2.38620  83.65560   1.71396  83.64538   0.65195  88.59998   1.32418
      16  86.11757   0.45665         13.56086   7.726600  88.59998   1.32418  83.64538   0.65195  83.63515  -0.41089  88.58976   0.26135
      15  75.71866 127.97767         13.10956   8.242480  78.21923 128.81625  73.22139 128.09227  73.21809 127.13908  78.21592 127.86306
      15  75.71535 127.02411         13.11965   8.242480  78.21592 127.86306  73.21809 127.13908  73.21478 126.18516  78.21261 126.90914
      15  75.71204 126.06982         13.12974   8.242480  78.21261 126.90914  73.21478 126.18516  73.21147 125.23051  78.20930 125.95449
      15  75.70873 125.11480         13.13985   8.242480  78.20930 125.95449  73.21147 125.23051  73.20815 124.27512  78.20599 124.99910
      15  75.70541 124.15905         13.14996   8.242480  78.20599 124.99910  73.20815 124.27512  73.20484 123.31899  78.20267 124.04297
      15  75.70210 123.20255         13.16008   8.242480  78.20267 124.04297  73.20484 123.31899  73.20152 122.36213  78.19936 123.08611
      15  75.69878 122.24532         13.17020   8.242480  78.19936 123.08611  73.20152 122.36213  73.19820 121.40453  78.19603 122.12852
      15  75.69546 121.28736         13.18034   8.242480  78.19603 122.12852  73.19820 121.40453  73.19488 120.44620  78.19271 121.17018
      15  75.69213 120.32866         13.19048   8.242480  78.19271 121.17018  73.19488 120.44620  73.19155 119.48713  78.18939 120.21111
      15  75.68880 119.36922         13.20063   8.242480  78.18939 120.21111  73.19155 119.48713  73.18822 118.52732  78.18606 119.25130
      15  75.68547 118.40904         13.21079   8.242480  78.18606 119.25130  73.18822 118.52732  73.18489 117.56677  78.18273 118.29075
      15  75.68214 117.44812         13.22096   8.242480  78.18273 118.29075  73.18489 117.56677  73.18156 116.60549  78.17939 117.32947
      15  75.67881 116.48646         13.23113   8.242480  78.17939 117.32947  73.18156 116.60549  73.17822 115.64346  78.17606 116.36744
      15  75.67547 115.52407         13.24131   8.242480  78.17606 116.36744  73.17822 115.64346  73.17488 114.68069  78.17272 115.40467
      15  75.67213 114.56093         13.25150   8.242480  78.17272 115.40467  73.17488 114.68069  73.17154 113.71718  78.16938 114.44117
      15  75.66879 113.59705         13.26170   8.242480  78.16938 114.44117  73.17154 113.71718  73.16820 112.75293  78.16603 113.47692
      15  75.66544 112.63243         13.27190   8.242480  78.16603 113.47692  73.16820 112.75293  73.16485 111.78794  78.16269 112.51193
      15  75.66209 111.66707         13.28212   8.242480  78.16269 112.51193  73.16485 111.78794  73.16150 110.82221  78.15934 111.54619
      15  75.65874 110.70096         13.29234   8.242480  78.15934 111.54619  73.16150 110.82221  73.15815 109.85573  78.15599 110.57971
      15  75.65539 109.73411         13.30257   8.242480  78.15599 110.57971  73.15815 109.85573  73.15480 108.88851  78.15263 109.61249
      15  75.65204 108.76652         13.31280   8.242480  78.15263 109.61249  73.15480 108.88851  73.15144 107.92055  78.14928 108.64453
      15  75.64868 107.79818         13.32305   8.242480  78.14928 108.64453  73.15144 107.92055  73.14808 106.95184  78.14592 107.67582
      15  75.64532 106.82910         13.33330   8.242480  78.14592 107.67582  73.14808 106.95184  73.14472 105.98238  78.14255 106.70636
      15  75.64195 105.85927         13.34356   8.242480  78.14255 106.70636  73.14472 105.98238  73.14135 105.01218  78.13919 105.73616
      15  75.63859 104.88870         13.35383   8.242480  78.13919 105.73616  73.14135 105.01218  73.13799 104.04123  78.13582 104.76521
      15  75.63522 103.91737         13.36411   8.242480  78.13582 104.76521  73.13799 104.04123  73.13462 103.06954  78.13245 103.79352
      15  75.63185 102.94531         13.37439   8.242480  78.13245 103.79352  73.13462 103.06954  73.13125 102.09709  78.12908 102.82108
      15  75.62848 101.97249         13.38468   8.242480  78.12908 102.82108  73.13125 102.09709  73.12787 101.12390  78.12571 101.84788
      15  75.62510 100.99892         13.39498   8.242480  78.12571 101.84788  73.12787 101.12390  73.12449 100.14996  78.12233 100.87394
      15  75.62172 100.02461         13.40529   8.242480  78.12233 100.87394  73.12449 100.14996  73.12111  99.17527  78.11895  99.89925
      15  75.61834  99.04954         13.41560   8.242480  78.11895  99.89925  73.12111  99.17527  73.11773  98.19983  78.11557  98.92381
      15  75.61496  98.07373         13.42593   8.242480  78.11557  98.92381  73.11773  98.19983  73.11435  97.22364  78.11218  97.94762
      15  75.61157  97.09716         13.43626   8.242480  78.11218  97.94762  73.11435  97.22364  73.11096  96.24670  78.10879  96.97068
      15  75.60818  96.11984         13.44660   8.242480  78.10879  96.97068  73.11096  96.24670  73.10757  95.26901  78.10540  95.99299
      15  75.60479  95.14178         13.45695   8.242480  78.10540  95.99299  73.10757  95.26901  73.10417  94.29056  78.10201  95.01454
      15  75.60139  94.16295         13.46730   8.242480  78.10201  95.01454  73.10417  94.29056  73.10078  93.31136  78.09861  94.03534
      15  75.59800  93.18338         13.47767   8.242480  78.09861  94.03534  73.10078  93.31136  73.09738  92.33141  78.09522  93.05539
      15  75.59460  92.20305         13.48804   8.242480  78.09522  93.05539  73.09738  92.33141  73.09398  91.35070  78.09181  92.07469
      15  75.59120  91.22196         13.49842   8.242480  78.09181  92.07469  73.09398  91.35070  73.09058  90.36924  78.08841  91.09323
      15  75.58779  90.24013         13.50880   8.242480  78.08841  91.09323  73.09058  90.36924  73.08717  89.38703  78.08500  90.11101
      15  75.58438  89.25753         13.51920   8.242480  78.08500  90.11101  73.08717  89.38703  73.08376  88.40406  78.08160  89.12804
      15  75.58097  88.27418         13.52960   8.242480  78.08160  89.12804  73.08376  88.40406  73.08035  87.42033  78.07818  88.14431
      15  75.57756  87.29007         13.54001   8.242480  78.07818  88.14431  73.08035  87.42033  73.07694  86.43584  78.07477  87.15982
      15  75.57415  86.30521         13.55043   8.242480  78.07477  87.15982  73.07694  86.43584  73.07352  85.45060  78.07135  86.17458
      15  75.57073  85.31959         13.56086   8.242480  78.07135  86.17458  73.07352  85.45060  73.07010  84.46460  78.06794  85.18858
      15  75.56731  84.33321         13.57130   8.242480  78.06794  85.18858  73.07010  84.46460  73.06668  83.47784  78.06451  84.20182
      15  75.56388  83.34607         13.58174   8.242480  78.06451  84.20182  73.06668  83.47784  73.06325  82.49032  78.06109  83.21430
      15  75.56046  82.35817         13.59219   8.242480  78.06109  83.21430  73.06325  82.49032  73.05983  81.50204  78.05766  82.22602
      15  75.55703  81.36951         13.60265   8.242480  78.05766  82.22602  73.05983  81.50204  73.05640  80.51300  78.05423  81.23698
      15  75.55360  80.38009         13.61312   8.242480  78.05423  81.23698  73.05640  80.51300  73.05296  79.52320  78.05080  80.24718
      15  75.55016  79.38991         13.62359   8.242480  78.05080  80.24718  73.05296  79.52320  73.04953  78.53264  78.04736  79.25662
      15  75.54673  78.39896         13.63408   8.242480  78.04736  79.25662  73.04953  78.53264  73.04609  77.54131  78.04393  78.26529
      15  75.54329  77.40726         13.64457   8.242480  78.04393  78.26529  73.04609  77.54131  73.04265  76.54922  78.04049  77.27320
      15  75.53985  76.41479         13.65507   8.242480  78.04049  77.27320  73.04265  76.54922  73.03921  75.55637  78.03704  76.28035
      15  75.53640  75.42155         13.66558   8.242480  78.03704  76.28035  73.03921  75.55637  73.03576  74.56276  78.03360  75.28674
      15  75.53296  74.42756         13.67609   8.242480  78.03360  75.28674  73.03576  74.56276  73.03231  73.56838  78.03015  74.29236
      15  75.52951  73.43280         13.68662   8.242480  78.03015  74.29236  73.03231  73.56838  73.02886  72.57323  78.02670  73.29721
      15  75.52605  72.43727         13.69715   8.242480  78.02670  73.29721  73.02886  72.57323  73.02541  71.57732  78.02324  72.30130
      15  75.52260  71.44097         13.70769   8.242480  78.02324  72.30130  73.02541  71.57732  73.02195  70.58064  78.01979  71.30463
      15  75.51914  70.44391         13.71824   8.242480  78.01979  71.30463  73.02195  70.58064  73.01850  69.58320  78.01633  70.30718
      15  75.51568  69.44608         13.72880   8.242480  78.01633  70.30718  73.01850  69.58320  73.01503  68.58499  78.01287  69.30897
      15  75.51222  68.44749         13.73936   8.242480  78.01287  69.30897  73.01503  68.58499  73.01157  67.58601  78.00940  68.30999
      15  75.50875  67.44813         13.74993   8.242480  78.00940  68.30999  73.01157  67.58601  73.00810  66.58626  78.00594  67.31024
      15  75.50528  66.44799         13.76051   8.242480  78.00594  67.31024  73.00810  66.58626  73.00463  65.58574  78.00247  66.30972
      15  75.50181  65.44709         13.77110   8.242480  78.00247  66.30972  73.00463  65.58574  73.00116  64.58445  77.99900  65.30844
      15  75.49834  64.44542         13.78170   8.242480  77.99900  65.30844  73.00116  64.58445  72.99769  63.58240  77.99552  64.30638
      15  75.49486  63.44297         13.79231   8.242480  77.99552  64.30638  72.99769  63.58240  72.99421  62.57957  77.99204  63.30355
      15  75.49139  62.43976         13.80292   8.242480  77.99204  63.30355  72.99421  62.57957  72.99073  61.57597  77.98856  62.29995
      15  75.48790  61.43577         13.81354   8.242480  77.98856  62.29995  72.99073  61.57597  72.98724  60.57159  77.98508  61.29557
      15  75.48442  60.43101         13.82417   8.242480  77.98508  61.29557  72.98724  60.57159  72.98376  59.56645  77.98159  60.29043
      15  75.48093  59.42548         13.83481   8.242480  77.98159  60.29043  72.98376  59.56645  72.98027  58.56053  77.97811  59.28451
      15  75.47744  58.41917         13.84546   8.242480  77.97811  59.28451  72.98027  58.56053  72.97678  57.55383  77.97461  58.27781
      15  75.47395  57.41209         13.85611   8.242480  77.97461  58.27781  72.97678  57.55383  72.97329  56.54636  77.97112  57.27035
      15  75.47046  56.40423         13.86677   8.242480  77.97112  57.27035  72.97329  56.54636  72.96979  55.53812  77.96762  56.26210
      15  75.46696  55.39560         13.87744   8.242480  77.96762  56.26210  72.96979  55.53812  72.96629  54.52910  77.96413  55.25308
      15  75.46346  54.38619         13.88812   8.242480  77.96413  55.25308  72.96629  54.52910  72.96279  53.51930  77.96062  54.24329
      15  75.45995  53.37601         13.89881   8.242480  77.96062  54.24329  72.96279  53.51930  72.95928  52.50873  77.95712  53.23271
      15  75.45645  52.36505         13.90951   8.242480  77.95712  53.23271  72.95928  52.50873  72.95578  51.49738  77.95361  52.22136
      15  75.45294  51.35331         13.92021   8.242480  77.95361  52.22136  72.95578  51.49738  72.95227  50.48525  77.95010  51.20923
      15  75.44943  50.34079         13.93092   8.242480  77.95010  51.20923  72.95227  50.48525  72.94876  49.47234  77.94659  50.19632
      15  75.44591  49.32749         13.94164   8.242480  77.94659  50.19632  72.94876  49.47234  72.94524  48.45866  77.94307  49.18264
      15  75.44240  48.31341         13.95237   8.242480  77.94307  49.18264  72.94524  48.45866  72.94172  47.44419  77.93956  48.16817
      15  75.43888  47.29855         13.96311   8.242480  77.93956  48.16817  72.94172  47.44419  72.93820  46.42894  77.93604  47.15292
      15  75.43536  46.28292         13.97385   8.242480  77.93604  47.15292  72.93820  46.42894  72.93468  45.41291  77.93251  46.13689
      15  75.43183  45.26650         13.98460   8.242480  77.93251  46.13689  72.93468  45.41291  72.93115  44.39610  77.92899  45.12008
      15  75.42830  44.24929         13.99537   8.242480  77.92899  45.12008  72.93115  44.39610  72.92762  43.37850  77.92546  44.10249
      15  75.42477  43.23131         14.00614   8.242480  77.92546  44.10249  72.92762  43.37850  72.92409  42.36013  77.92193  43.08411
      15  75.42124  42.21254         14.01691   8.242480  77.92193  43.08411  72.92409  42.36013  72.92056  41.34097  77.91839  42.06495
      15  75.41771  41.19299         14.02770   8.242480  77.91839  42.06495  72.92056  41.34097  72.91702  40.32102  77.91486  41.04500
      15  75.41417  40.17265         14.03849   8.242480  77.91486  41.04500  72.91702  40.32102  72.91348  39.30029  77.91132  40.02427
      15  75.41063  39.15153         14.04930   8.242480  77.91132  40.02427  72.91348  39.30029  72.90994  38.27878  77.90777  39.00276
      15  75.40708  38.12962         14.06011   8.242480  77.90777  39.00276  72.90994  38.27878  72.90639  37.25648  77.90423  37.98046
      15  75.40354  37.10692         14.07093   8.242480  77.90423  37.98046  72.90639  37.25648  72.90285  36.23339  77.90068  36.95737
      15  75.39999  36.08344         14.08176   8.242480  77.90068  36.95737  72.90285  36.23339  72.89929  35.20951  77.89713  35.93350
      15  75.39644  35.05917         14.09259   8.242480  77.89713  35.93350  72.89929  35.20951  72.89574  34.18485  77.89358  34.90883
      15  75.39288  34.03412         14.10344   8.242480  77.89358  34.90883  72.89574  34.18485  72.89219  33.15940  77.89002  33.88338
      15  75.38932  33.00827         14.11429   8.242480  77.89002  33.88338  72.89219  33.15940  72.88863  32.13316  77.88646  32.85714
      15  75.38576  31.98163         14.12515   8.242480  77.88646  32.85714  72.88863  32.13316  72.88507  31.10613  77.88290  31.83011
      15  75.38220  30.95421         14.13602   8.242480  77.88290  31.83011  72.88507  31.10613  72.88150  30.07831  77.87934  30.80229
      15  75.37863  29.92599         14.14690   8.242480  77.87934  30.80229  72.88150  30.07831  72.87793  29.04970  77.87577  29.77368
      15  75.37507  28.89698         14.15779   8.242480  77.87577  29.77368  72.87793  29.04970  72.87436  28.02029  77.87220  28.74427
      15  75.37150  27.86719         14.16868   8.242480  77.87220  28.74427  72.87436  28.02029  72.87079  26.99010  77.86863  27.71408
      15  75.36792  26.83659         14.17958   8.242480  77.86863  27.71408  72.87079  26.99010  72.86722  25.95911  77.86505  26.68309
      15  75.36434  25.80521         14.19050   8.242480  77.86505  26.68309  72.86722  25.95911  72.86364  24.92733  77.86147  25.65131
      15  75.36077  24.77303         14.20142   8.242480  77.86147  25.65131  72.86364  24.92733  72.86006  23.89475  77.85789  24.61873
      15  75.35718  23.74006         14.21234   8.242480  77.85789  24.61873  72.86006  23.89475  72.85647  22.86138  77.85431  23.58536
      15  75.35360  22.70629         14.22328   8.242480  77.85431  23.58536  72.85647  22.86138  72.85289  21.82722  77.85072  22.55120
      15  75.35001  21.67173         14.23423   8.242480  77.85072  22.55120  72.85289  21.82722  72.84930  20.79225  77.84713  21.51624
      15  75.34642  20.63637         14.24518   8.242480  77.84713  21.51624  72.84930  20.79225  72.84571  19.75650  77.84354  20.48048
      15  75.34283  19.60021         14.25614   8.242480  77.84354  20.48048  72.84571  19.75650  72.84211  18.71994  77.83995  19.44392
      15  75.33923  18.56326         14.26711   8.242480  77.83995  19.44392  72.84211  18.71994  72.83852  17.68259  77.83635  18.40657
      15  75.33563  17.52551         14.27809   8.242480  77.83635  18.40657  72.83852  17.68259  72.83492  16.64444  77.83275  17.36842
      15  75.33203  16.48696         14.28908   8.242480  77.83275  17.36842  72.83492  16.64444  72.83131  15.60549  77.82915  16.32947
      15  75.32843  15.44761         14.30007   8.242480  77.82915  16.32947  72.83131  15.60549  72.82771  14.56574  77.82554  15.28972
      15  75.32482  14.40746         14.31108   8.242480  77.82554  15.28972  72.82771  14.56574  72.82410  13.52519  77.82193  14.24917
      15  75.32121  13.36651         14.32209   8.242480  77.82193  14.24917  72.82410  13.52519  72.82049  12.48384  77.81832  13.20782
      15  75.31760  12.32476         14.33311   8.242480  77.81832  13.20782  72.82049  12.48384  72.81687  11.44169  77.81471  12.16567
      15  75.31398  11.28221         14.34414   8.242480  77.81471  12.16567  72.81687  11.44169  72.81326  10.39874  77.81109  11.12272
      15  75.31036  10.23885         14.35518   8.242480  77.81109  11.12272  72.81326  10.39874  72.80964   9.35498  77.80747  10.07896
      15  75.30674   9.19469         14.36623   8.242480  77.80747  10.07896  72.80964   9.35498  72.80601   8.31042  77.80385   9.03441
      15  75.30312   8.14973         14.37728   8.242480  77.80385   9.03441  72.80601   8.31042  72.80239   7.26506  77.80022   7.98904
      15  75.29949   7.10397         14.38835   8.242480  77.80022   7.98904  72.80239   7.26506  72.79876   6.21889  77.79660   6.94288
      15  75.29586   6.05740         14.39942   8.242480  77.79660   6.94288  72.79876   6.21889  72.79513   5.17192  77.79297   5.89590
      15  75.29223   5.01002         14.41050   8.242480  77.79297   5.89590  72.79513   5.17192  72.79150   4.12414  77.78933   4.84813
      15  75.28860   3.96184         14.42159   8.242480  77.78933   4.84813  72.79150   4.12414  72.78786   3.07556  77.78570   3.79954
      15  75.28496   2.91286         14.43269   8.242480  77.78570   3.79954  72.78786   3.07556  72.78422   2.02617  77.78206   2.75015
      15  75.28132   1.86306         14.44379   8.242480  77.78206   2.75015  72.78422   2.02617  72.78058   0.97597  77.77842   1.69995
      15  75.27768   0.81246         14.45491   8.242480  77.77842   1.69995  72.78058   0.97597  72.77694  -0.07504  77.77477   0.64895
      14  63.41898 126.93937         14.08176   8.840170  65.89971 127.89788  60.95911 127.12949  60.93825 125.98085  65.87885 126.74924
      14  63.39811 125.79029         14.09259   8.840170  65.87885 126.74924  60.93825 125.98085  60.91737 124.83133  65.85798 125.59972
      14  63.37723 124.64032         14.10344   8.840170  65.85798 125.59972  60.91737 124.83133  60.89648 123.68092  65.83709 124.44931
      14  63.35633 123.48947         14.11429   8.840170  65.83709 124.44931  60.89648 123.68092  60.87557 122.52963  65.81618 123.29802
      14  63.33542 122.33774         14.12515   8.840170  65.81618 123.29802  60.87557 122.52963  60.85465 121.37745  65.79526 122.14584
      14  63.31448 121.18511         14.13602   8.840170  65.79526 122.14584  60.85465 121.37745  60.83371 120.22438  65.77432 120.99278
      14  63.29354 120.03160         14.14690   8.840170  65.77432 120.99278  60.83371 120.22438  60.81276 119.07043  65.75336 119.83882
      14  63.27257 118.87721         14.15779   8.840170  65.75336 119.83882  60.81276 119.07043  60.79178 117.91559  65.73239 118.68398
      14  63.25159 117.72192         14.16868   8.840170  65.73239 118.68398  60.79178 117.91559  60.77080 116.75986  65.71140 117.52825
      14  63.23060 116.56575         14.17958   8.840170  65.71140 117.52825  60.77080 116.75986  60.74979 115.60324  65.69040 116.37164
      14  63.20958 115.40869         14.19050   8.840170  65.69040 116.37164  60.74979 115.60324  60.72877 114.44573  65.66938 115.21413
      14  63.18855 114.25073         14.20142   8.840170  65.66938 115.21413  60.72877 114.44573  60.70773 113.28733  65.64834 114.05573
      14  63.16751 113.09189         14.21234   8.840170  65.64834 114.05573  60.70773 113.28733  60.68668 112.12804  65.62729 112.89644
      14  63.14645 111.93215         14.22328   8.840170  65.62729 112.89644  60.68668 112.12804  60.66561 110.96786  65.60622 111.73625
      14  63.12537 110.77152         14.23423   8.840170  65.60622 111.73625  60.66561 110.96786  60.64453 109.80679  65.58513 110.57518
      14  63.10428 109.61000         14.24518   8.840170  65.58513 110.57518  60.64453 109.80679  60.62343 108.64482  65.56403 109.41321
      14  63.08317 108.44758         14.25614   8.840170  65.56403 109.41321  60.62343 108.64482  60.60231 107.48195  65.54291 108.25035
      14  63.06204 107.28427         14.26711   8.840170  65.54291 108.25035  60.60231 107.48195  60.58117 106.31819  65.52178 107.08659
      14  63.04090 106.12006         14.27809   8.840170  65.52178 107.08659  60.58117 106.31819  60.56002 105.15354  65.50063 105.92193
      14  63.01974 104.95496         14.28908   8.840170  65.50063 105.92193  60.56002 105.15354  60.53886 103.98799  65.47946 104.75638
      14  62.99857 103.78896         14.30007   8.840170  65.47946 104.75638  60.53886 103.98799  60.51768 102.82154  65.45828 103.58994
      14  62.97738 102.62207         14.31108   8.840170  65.45828 103.58994  60.51768 102.82154  60.49648 101.65420  65.43708 102.42259
      14  62.95617 101.45427         14.32209   8.840170  65.43708 102.42259  60.49648 101.65420  60.47526 100.48596  65.41587 101.25435
      14  62.93495 100.28558         14.33311   8.840170  65.41587 101.25435  60.47526 100.48596  60.45403  99.31681  65.39463 100.08521
      14  62.91371  99.11599         14.34414   8.840170  65.39463 100.08521  60.45403  99.31681  60.43278  98.14677  65.37339  98.91517
      14  62.89245  97.94550         14.35518   8.840170  65.37339  98.91517  60.43278  98.14677  60.41152  96.97583  65.35212  97.74422
      14  62.87118  96.77411         14.36623   8.840170  65.35212  97.74422  60.41152  96.97583  60.39024  95.80399  65.33084  96.57238
      14  62.84989  95.60181         14.37728   8.840170  65.33084  96.57238  60.39024  95.80399  60.36894  94.63124  65.30954  95.39964
      14  62.82858  94.42862         14.38835   8.840170  65.30954  95.39964  60.36894  94.63124  60.34763  93.45760  65.28823  94.22599
      14  62.80726  93.25452         14.39942   8.840170  65.28823  94.22599  60.34763  93.45760  60.32630  92.28305  65.26690  93.05144
      14  62.78592  92.07951         14.41050   8.840170  65.26690  93.05144  60.32630  92.28305  60.30495  91.10759  65.24555  91.87598
      14  62.76457  90.90361         14.42159   8.840170  65.24555  91.87598  60.30495  91.10759  60.28359  89.93123  65.22419  90.69963
      14  62.74320  89.72680         14.43269   8.840170  65.22419  90.69963  60.28359  89.93123  60.26221  88.75397  65.20281  89.52236
      14  62.72181  88.54908         14.44379   8.840170  65.20281  89.52236  60.26221  88.75397  60.24081  87.57580  65.18142  88.34419
      14  62.70041  87.37046         14.45491   8.840170  65.18142  88.34419  60.24081  87.57580  60.21940  86.39672  65.16000  87.16512
      14  62.67899  86.19093         14.46603   8.840170  65.16000  87.16512  60.21940  86.39672  60.19797  85.21674  65.13858  85.98513
      14  62.65755  85.01049         14.47716   8.840170  65.13858  85.98513  60.19797  85.21674  60.17653  84.03585  65.11713  84.80424
      14  62.63610  83.82914         14.48830   8.840170  65.11713  84.80424  60.17653  84.03585  60.15506  82.85405  65.09567  83.62244
      14  62.61463  82.64689         14.49945   8.840170  65.09567  83.62244  60.15506  82.85405  60.13359  81.67134  65.07419  82.43973
      14  62.59314  81.46372         14.51061   8.840170  65.07419  82.43973  60.13359  81.67134  60.11209  80.48772  65.05270  81.25611
      14  62.57164  80.27965         14.52178   8.840170  65.05270  81.25611  60.11209  80.48772  60.09058  79.30318  65.03119  80.07158
      14  62.55012  79.09466         14.53295   8.840170  65.03119  80.07158  60.09058  79.30318  60.06905  78.11774  65.00966  78.88613
      14  62.52858  77.90876         14.54413   8.840170  65.00966  78.88613  60.06905  78.11774  60.04751  76.93139  64.98811  77.69978
      14  62.50703  76.72195         14.55533   8.840170  64.98811  77.69978  60.04751  76.93139  60.02595  75.74412  64.96655  76.51251
      14  62.48546  75.53422         14.56653   8.840170  64.96655  76.51251  60.02595  75.74412  60.00437  74.55594  64.94498  75.32433
      14  62.46388  74.34559         14.57774   8.840170  64.94498  75.32433  60.00437  74.55594  59.98278  73.36684  64.92338  74.13524
      14  62.44227  73.15603         14.58895   8.840170  64.92338  74.13524  59.98278  73.36684  59.96117  72.17683  64.90177  72.94522
      14  62.42065  71.96556         14.60018   8.840170  64.90177  72.94522  59.96117  72.17683  59.93954  70.98590  64.88014  71.75430
      14  62.39902  70.77418         14.61142   8.840170  64.88014  71.75430  59.93954  70.98590  59.91790  69.79406  64.85850  70.56245
      14  62.37737  69.58188         14.62266   8.840170  64.85850  70.56245  59.91790  69.79406  59.89623  68.60130  64.83684  69.36969
      14  62.35570  68.38866         14.63391   8.840170  64.83684  69.36969  59.89623  68.60130  59.87456  67.40762  64.81516  68.17602
      14  62.33401  67.19452         14.64517   8.840170  64.81516  68.17602  59.87456  67.40762  59.85286  66.21303  64.79347  66.98142
      14  62.31231  65.99947         14.65644   8.840170  64.79347  66.98142  59.85286  66.21303  59.83115  65.01751  64.77176  65.78590
      14  62.29059  64.80349         14.66772   8.840170  64.77176  65.78590  59.83115  65.01751  59.80943  63.82108  64.75003  64.58947
      14  62.26886  63.60659         14.67901   8.840170  64.75003  64.58947  59.80943  63.82108  59.78768  62.62372  64.72829  63.39211
      14  62.24710  62.40878         14.69031   8.840170  64.72829  63.39211  59.78768  62.62372  59.76592  61.42544  64.70653  62.19383
      14  62.22533  61.21004         14.70161   8.840170  64.70653  62.19383  59.76592  61.42544  59.74414  60.22624  64.68475  60.99463
      14  62.20355  60.01038         14.71292   8.840170  64.68475  60.99463  59.74414  60.22624  59.72235  59.02612  64.66295  59.79451
      14  62.18175  58.80979         14.72425   8.840170  64.66295  59.79451  59.72235  59.02612  59.70054  57.82507  64.64114  58.59347
      14  62.15993  57.60828         14.73558   8.840170  64.64114  58.59347  59.70054  57.82507  59.67871  56.62310  64.61931  57.39149
      14  62.13809  56.40585         14.74692   8.840170  64.61931  57.39149  59.67871  56.62310  59.65687  55.42021  64.59747  56.18860
      14  62.11624  55.20249         14.75826   8.840170  64.59747  56.18860  59.65687  55.42021  59.63500  54.21638  64.57561  54.98478
      14  62.09437  53.99821         14.76962   8.840170  64.57561  54.98478  59.63500  54.21638  59.61313  53.01164  64.55373  53.78003
      14  62.07248  52.79300         14.78099   8.840170  64.55373  53.78003  59.61313  53.01164  59.59123  51.80596  64.53184  52.57436
      14  62.05058  51.58686         14.79236   8.840170  64.53184  52.57436  59.59123  51.80596  59.56932  50.59936  64.50992  51.36775
      14  62.02866  50.37979         14.80374   8.840170  64.50992  51.36775  59.56932  50.59936  59.54739  49.39183  64.48799  50.16022
      14  62.00672  49.17180         14.81514   8.840170  64.48799  50.16022  59.54739  49.39183  59.52544  48.18337  64.46605  48.95176
      14  61.98477  47.96287         14.82654   8.840170  64.46605  48.95176  59.52544  48.18337  59.50348  46.97398  64.44409  47.74237
      14  61.96279  46.75302         14.83795   8.840170  64.44409  47.74237  59.50348  46.97398  59.48150  45.76366  64.42211  46.53205
      14  61.94081  45.54223         14.84936   8.840170  64.42211  46.53205  59.48150  45.76366  59.45951  44.55241  64.40011  45.32080
      14  61.91880  44.33051         14.86079   8.840170  64.40011  45.32080  59.45951  44.55241  59.43749  43.34022  64.37810  44.10862
      14  61.89678  43.11786         14.87223   8.840170  64.37810  44.10862  59.43749  43.34022  59.41546  42.12711  64.35607  42.89550
      14  61.87474  41.90428         14.88367   8.840170  64.35607  42.89550  59.41546  42.12711  59.39342  40.91305  64.33402  41.68145
      14  61.85269  40.68976         14.89512   8.840170  64.33402  41.68145  59.39342  40.91305  59.37135  39.69807  64.31196  40.46646
      14  61.83061  39.47431         14.90659   8.840170  64.31196  40.46646  59.37135  39.69807  59.34927  38.48215  64.28987  39.25054
      14  61.80852  38.25792         14.91806   8.840170  64.28987  39.25054  59.34927  38.48215  59.32717  37.26529  64.26778  38.03369
      14  61.78642  37.04060         14.92954   8.840170  64.26778  38.03369  59.32717  37.26529  59.30506  36.04750  64.24566  36.81590
      14  61.76429  35.82233         14.94103   8.840170  64.24566  36.81590  59.30506  36.04750  59.28292  34.82877  64.22353  35.59717
      14  61.74215  34.60314         14.95252   8.840170  64.22353  35.59717  59.28292  34.82877  59.26078  33.60911  64.20138  34.37750
      14  61.71999  33.38300         14.96403   8.840170  64.20138  34.37750  59.26078  33.60911  59.23861  32.38850  64.17921  33.15689
      14  61.69782  32.16193         14.97555   8.840170  64.17921  33.15689  59.23861  32.38850  59.21643  31.16696  64.15703  31.93535
      14  61.67563  30.93991         14.98707   8.840170  64.15703  31.93535  59.21643  31.16696  59.19423  29.94447  64.13483  30.71287
      14  61.65342  29.71696         14.99860   8.840170  64.13483  30.71287  59.19423  29.94447  59.17201  28.72105  64.11261  29.48944
      14  61.63119  28.49306         15.01014   8.840170  64.11261  29.48944  59.17201  28.72105  59.14977  27.49668  64.09038  28.26507
      14  61.60895  27.26822         15.02170   8.840170  64.09038  28.26507  59.14977  27.49668  59.12752  26.27137  64.06813  27.03976
      14  61.58669  26.04244         15.03325   8.840170  64.06813  27.03976  59.12752  26.27137  59.10525  25.04512  64.04586  25.81351
      14  61.56441  24.81572         15.04482   8.840170  64.04586  25.81351  59.10525  25.04512  59.08297  23.81792  64.02357  24.58632
      14  61.54212  23.58805         15.05640   8.840170  64.02357  24.58632  59.08297  23.81792  59.06066  22.58978  64.00127  23.35818
      14  61.51981  22.35944         15.06799   8.840170  64.00127  23.35818  59.06066  22.58978  59.03834  21.36070  63.97895  22.12909
      14  61.49748  21.12988         15.07958   8.840170  63.97895  22.12909  59.03834  21.36070  59.01601  20.13067  63.95661  20.89906
      14  61.47513  19.89938         15.09119   8.840170  63.95661  20.89906  59.01601  20.13067  58.99365  18.89969  63.93426  19.66808
      14  61.45277  18.66792         15.10280   8.840170  63.93426  19.66808  58.99365  18.89969  58.97128  17.66777  63.91188  18.43616
      14  61.43039  17.43553         15.11442   8.840170  63.91188  18.43616  58.97128  17.66777  58.94889  16.43489  63.88950  17.20329
      14  61.40799  16.20218         15.12605   8.840170  63.88950  17.20329  58.94889  16.43489  58.92648  15.20107  63.86709  15.96946
      14  61.38558  14.96788         15.13769   8.840170  63.86709  15.96946  58.92648  15.20107  58.90406  13.96630  63.84467  14.73469
      14  61.36314  13.73264         15.14934   8.840170  63.84467  14.73469  58.90406  13.96630  58.88162  12.73058  63.82222  13.49897
      14  61.34069  12.49644         15.16100   8.840170  63.82222  13.49897  58.88162  12.73058  58.85916  11.49391  63.79977  12.26230
      14  61.31823  11.25929         15.17267   8.840170  63.79977  12.26230  58.85916  11.49391  58.83669  10.25628  63.77729  11.02468
      14  61.29574  10.02119         15.18434   8.840170  63.77729  11.02468  58.83669  10.25628  58.81419   9.01771  63.75480   9.78610
      14  61.27324   8.78214         15.19603   8.840170  63.75480   9.78610  58.81419   9.01771  58.79168   7.77818  63.73229   8.54657
      14  61.25072   7.54213         15.20772   8.840170  63.73229   8.54657  58.79168   7.77818  58.76916   6.53770  63.70976   7.30609
      14  61.22819   6.30117         15.21942   8.840170  63.70976   7.30609  58.76916   6.53770  58.74661   5.29626  63.68722   6.06465
      14  61.20563   5.05926         15.23113   8.840170  63.68722   6.06465  58.74661   5.29626  58.72405   4.05387  63.66466   4.82226
      14  61.18306   3.81639         15.24286   8.840170  63.66466   4.82226  58.72405   4.05387  58.70147   2.81052  63.64208   3.57891
      14  61.16048   2.57256         15.25459   8.840170  63.64208   3.57891  58.70147   2.81052  58.67888   1.56621  63.61948   2.33460
      14  61.13787   1.32778         15.26632   8.840170  63.61948   2.33460  58.67888   1.56621  58.65626   0.32095  63.59687   1.08934
      14  61.11525   0.08203         15.27807   8.840170  63.59687   1.08934  58.65626   0.32095  58.63363  -0.92527  63.57423  -0.15688
      13  48.80044 127.69488         15.07958   9.519680  51.32719 128.58877  46.29743 127.74530  46.27368 126.80100  51.30345 127.64447
      13  48.77668 126.75022         15.09119   9.519680  51.30345 127.64447  46.27368 126.80100  46.24992 125.85597  51.27968 126.69944
      13  48.75291 125.80482         15.10280   9.519680  51.27968 126.69944  46.24992 125.85597  46.22613 124.91021  51.25590 125.75368
      13  48.72912 124.85870         15.11442   9.519680  51.25590 125.75368  46.22613 124.91021  46.20233 123.96372  51.23210 124.80719
      13  48.70530 123.91185         15.12605   9.519680  51.23210 124.80719  46.20233 123.96372  46.17851 123.01651  51.20828 123.85998
      13  48.68148 122.96427         15.13769   9.519680  51.20828 123.85998  46.17851 123.01651  46.15467 122.06857  51.18444 122.91204
      13  48.65763 122.01596         15.14934   9.519680  51.18444 122.91204  46.15467 122.06857  46.13082 121.11989  51.16058 121.96336
      13  48.63376 121.06693         15.16100   9.519680  51.16058 121.96336  46.13082 121.11989  46.10694 120.17049  51.13671 121.01396
      13  48.60988 120.11716         15.17267   9.519680  51.13671 121.01396  46.10694 120.17049  46.08305 119.22036  51.11282 120.06383
      13  48.58598 119.16666         15.18434   9.519680  51.11282 120.06383  46.08305 119.22036  46.05914 118.26949  51.08891 119.11296
      13  48.56206 118.21543         15.19603   9.519680  51.08891 119.11296  46.05914 118.26949  46.03521 117.31790  51.06498 118.16137
      13  48.53812 117.26347         15.20772   9.519680  51.06498 118.16137  46.03521 117.31790  46.01126 116.36557  51.04103 117.20904
      13  48.51416 116.31077         15.21942   9.519680  51.04103 117.20904  46.01126 116.36557  45.98729 115.41251  51.01706 116.25598
      13  48.49018 115.35735         15.23113   9.519680  51.01706 116.25598  45.98729 115.41251  45.96331 114.45871  50.99308 115.30218
      13  48.46619 114.40319         15.24286   9.519680  50.99308 115.30218  45.96331 114.45871  45.93930 113.50419  50.96907 114.34766
      13  48.44218 113.44829         15.25459   9.519680  50.96907 114.34766  45.93930 113.50419  45.91528 112.54892  50.94505 113.39239
      13  48.41815 112.49266         15.26632   9.519680  50.94505 113.39239  45.91528 112.54892  45.89124 111.59293  50.92101 112.43640
      13  48.39410 111.53629         15.27807   9.519680  50.92101 112.43640  45.89124 111.59293  45.86718 110.63619  50.89695 111.47966
      13  48.37003 110.57919         15.28983   9.519680  50.89695 111.47966  45.86718 110.63619  45.84311 109.67872  50.87287 110.52219
      13  48.34594 109.62135         15.30159   9.519680  50.87287 110.52219  45.84311 109.67872  45.81901 108.72051  50.84878 109.56399
      13  48.32184 108.66278         15.31337   9.519680  50.84878 109.56399  45.81901 108.72051  45.79490 107.76157  50.82466 108.60504
      13  48.29771 107.70347         15.32515   9.519680  50.82466 108.60504  45.79490 107.76157  45.77076 106.80189  50.80053 107.64536
      13  48.27357 106.74341         15.33695   9.519680  50.80053 107.64536  45.77076 106.80189  45.74661 105.84147  50.77638 106.68494
      13  48.24941 105.78262         15.34875   9.519680  50.77638 106.68494  45.74661 105.84147  45.72244 104.88031  50.75221 105.72378
      13  48.22523 104.82109         15.36056   9.519680  50.75221 105.72378  45.72244 104.88031  45.69825 103.91841  50.72802 104.76188
      13  48.20103 103.85883         15.37238   9.519680  50.72802 104.76188  45.69825 103.91841  45.67404 102.95577  50.70381 103.79924
      13  48.17681 102.89582         15.38421   9.519680  50.70381 103.79924  45.67404 102.95577  45.64982 101.99239  50.67958 102.83586
      13  48.15258 101.93206         15.39605   9.519680  50.67958 102.83586  45.64982 101.99239  45.62557 101.02827  50.65534 101.87174
      13  48.12832 100.96757         15.40790   9.519680  50.65534 101.87174  45.62557 101.02827  45.60131 100.06341  50.63108 100.90688
      13  48.10405 100.00234         15.41975   9.519680  50.63108 100.90688  45.60131 100.06341  45.57703  99.09780  50.60679  99.94127
      13  48.07976  99.03636         15.43162   9.519680  50.60679  99.94127  45.57703  99.09780  45.55273  98.13145  50.58249  98.97492
      13  48.05545  98.06964         15.44349   9.519680  50.58249  98.97492  45.55273  98.13145  45.52841  97.16436  50.55817  98.00783
      13  48.03112  97.10217         15.45538   9.519680  50.55817  98.00783  45.52841  97.16436  45.50407  96.19652  50.53384  97.03999
      13  48.00677  96.13397         15.46727   9.519680  50.53384  97.03999  45.50407  96.19652  45.47971  95.22794  50.50948  96.07141
      13  47.98241  95.16501         15.47917   9.519680  50.50948  96.07141  45.47971  95.22794  45.45534  94.25861  50.48510  95.10208
      13  47.95802  94.19531         15.49109   9.519680  50.48510  95.10208  45.45534  94.25861  45.43094  93.28854  50.46071  94.13201
      13  47.93362  93.22487         15.50301   9.519680  50.46071  94.13201  45.43094  93.28854  45.40653  92.31772  50.43630  93.16119
      13  47.90920  92.25367         15.51494   9.519680  50.43630  93.16119  45.40653  92.31772  45.38210  91.34615  50.41186  92.18962
      13  47.88475  91.28173         15.52688   9.519680  50.41186  92.18962  45.38210  91.34615  45.35765  90.37384  50.38741  91.21731
      13  47.86029  90.30904         15.53882   9.519680  50.38741  91.21731  45.35765  90.37384  45.33318  89.40078  50.36294  90.24425
      13  47.83582  89.33561         15.55078   9.519680  50.36294  90.24425  45.33318  89.40078  45.30869  88.42697  50.33845  89.27044
      13  47.81132  88.36142         15.56275   9.519680  50.33845  89.27044  45.30869  88.42697  45.28418  87.45241  50.31395  88.29588
      13  47.78680  87.38649         15.57472   9.519680  50.31395  88.29588  45.28418  87.45241  45.25965  86.47710  50.28942  87.32057
      13  47.76226  86.41080         15.58671   9.519680  50.28942  87.32057  45.25965  86.47710  45.23511  85.50104  50.26488  86.34451
      13  47.73771  85.43436         15.59870   9.519680  50.26488  86.34451  45.23511  85.50104  45.21054  84.52422  50.24031  85.36769
      13  47.71314  84.45718         15.61071   9.519680  50.24031  85.36769  45.21054  84.52422  45.18596  83.54666  50.21573  84.39013
      13  47.68854  83.47924         15.62272   9.519680  50.21573  84.39013  45.18596  83.54666  45.16136  82.56834  50.19113  83.41181
      13  47.66393  82.50054         15.63474   9.519680  50.19113  83.41181  45.16136  82.56834  45.13674  81.58927  50.16651  82.43274
      13  47.63930  81.52110         15.64677   9.519680  50.16651  82.43274  45.13674  81.58927  45.11210  80.60945  50.14187  81.45292
      13  47.61465  80.54090         15.65881   9.519680  50.14187  81.45292  45.11210  80.60945  45.08744  79.62888  50.11721  80.47235
      13  47.58999  79.55995         15.67086   9.519680  50.11721  80.47235  45.08744  79.62888  45.06276  78.64755  50.09253  79.49102
      13  47.56530  78.57824         15.68292   9.519680  50.09253  79.49102  45.06276  78.64755  45.03807  77.66546  50.06783  78.50893
      13  47.54059  77.59577         15.69499   9.519680  50.06783  78.50893  45.03807  77.66546  45.01335  76.68262  50.04312  77.52609
      13  47.51587  76.61255         15.70707   9.519680  50.04312  77.52609  45.01335  76.68262  44.98862  75.69902  50.01838  76.54249
      13  47.49112  75.62858         15.71916   9.519680  50.01838  76.54249  44.98862  75.69902  44.96386  74.71466  49.99363  75.55814
      13  47.46636  74.64384         15.73125   9.519680  49.99363  75.55814  44.96386  74.71466  44.93909  73.72955  49.96886  74.57302
      13  47.44158  73.65835         15.74336   9.519680  49.96886  74.57302  44.93909  73.72955  44.91430  72.74368  49.94407  73.58715
      13  47.41678  72.67210         15.75547   9.519680  49.94407  73.58715  44.91430  72.74368  44.88949  71.75705  49.91926  72.60052
      13  47.39196  71.68509         15.76760   9.519680  49.91926  72.60052  44.88949  71.75705  44.86466  70.76966  49.89443  71.61313
      13  47.36712  70.69733         15.77973   9.519680  49.89443  71.61313  44.86466  70.76966  44.83981  69.78152  49.86958  70.62499
      13  47.34226  69.70880         15.79187   9.519680  49.86958  70.62499  44.83981  69.78152  44.81494  68.79261  49.84471  69.63608
      13  47.31738  68.71951         15.80403   9.519680  49.84471  69.63608  44.81494  68.79261  44.79005  67.80294  49.81982  68.64641
      13  47.29248  67.72946         15.81619   9.519680  49.81982  68.64641  44.79005  67.80294  44.76515  66.81251  49.79492  67.65598
      13  47.26757  66.73865         15.82836   9.519680  49.79492  67.65598  44.76515  66.81251  44.74022  65.82131  49.76999  66.66478
      13  47.24263  65.74707         15.84054   9.519680  49.76999  66.66478  44.74022  65.82131  44.71528  64.82936  49.74504  65.67283
      13  47.21768  64.75473         15.85273   9.519680  49.74504  65.67283  44.71528  64.82936  44.69031  63.83664  49.72008  64.68011
      13  47.19271  63.76163         15.86493   9.519680  49.72008  64.68011  44.69031  63.83664  44.66533  62.84315  49.69510  63.68662
      13  47.16771  62.76777         15.87714   9.519680  49.69510  63.68662  44.66533  62.84315  44.64033  61.84891  49.67010  62.69238
      13  47.14270  61.77314         15.88935   9.519680  49.67010  62.69238  44.64033  61.84891  44.61531  60.85389  49.64507  61.69736
      13  47.11767  60.77774         15.90158   9.519680  49.64507  61.69736  44.61531  60.85389  44.59027  59.85811  49.62003  60.70159
      13  47.09262  59.78158         15.91382   9.519680  49.62003  60.70159  44.59027  59.85811  44.56521  58.86157  49.59497  59.70504
      13  47.06755  58.78465         15.92606   9.519680  49.59497  59.70504  44.56521  58.86157  44.54013  57.86426  49.56989  58.70773
      13  47.04246  57.78695         15.93832   9.519680  49.56989  58.70773  44.54013  57.86426  44.51503  56.86618  49.54479  57.70965
      13  47.01735  56.78849         15.95059   9.519680  49.54479  57.70965  44.51503  56.86618  44.48991  55.86733  49.51968  56.71080
      13  46.99222  55.78926         15.96286   9.519680  49.51968  56.71080  44.48991  55.86733  44.46477  54.86772  49.49454  55.71119
      13  46.96708  54.78926         15.97514   9.519680  49.49454  55.71119  44.46477  54.86772  44.43962  53.86733  49.46938  54.71080
      13  46.94191  53.78849         15.98744   9.519680  49.46938  54.71080  44.43962  53.86733  44.41444  52.86618  49.44421  53.70965
      13  46.91673  52.78695         15.99974   9.519680  49.44421  53.70965  44.41444  52.86618  44.38924  51.86425  49.41901  52.70772
      13  46.89152  51.78464         16.01205   9.519680  49.41901  52.70772  44.38924  51.86425  44.36403  50.86155  49.39380  51.70502
      13  46.86630  50.78155         16.02437   9.519680  49.39380  51.70502  44.36403  50.86155  44.33879  49.85809  49.36856  50.70156
      13  46.84105  49.77770         16.03670   9.519680  49.36856  50.70156  44.33879  49.85809  44.31354  48.85385  49.34331  49.69732
      13  46.81579  48.77307         16.04905   9.519680  49.34331  49.69732  44.31354  48.85385  44.28827  47.84883  49.31804  48.69230
      13  46.79051  47.76767         16.06140   9.519680  49.31804  48.69230  44.28827  47.84883  44.26298  46.84305  49.29274  47.68652
      13  46.76520  46.76150         16.07375   9.519680  49.29274  47.68652  44.26298  46.84305  44.23766  45.83649  49.26743  46.67996
      13  46.73988  45.75455         16.08612   9.519680  49.26743  46.67996  44.23766  45.83649  44.21233  44.82915  49.24210  45.67262
      13  46.71454  44.74683         16.09850   9.519680  49.24210  45.67262  44.21233  44.82915  44.18698  43.82104  49.21675  44.66451
      13  46.68918  43.73833         16.11089   9.519680  49.21675  44.66451  44.18698  43.82104  44.16161  42.81215  49.19138  43.65562
      13  46.66380  42.72906         16.12329   9.519680  49.19138  43.65562  44.16161  42.81215  44.13622  41.80249  49.16599  42.64596
      13  46.63840  41.71901         16.13570   9.519680  49.16599  42.64596  44.13622  41.80249  44.11081  40.79205  49.14058  41.63552
      13  46.61298  40.70818         16.14811   9.519680  49.14058  41.63552  44.11081  40.79205  44.08538  39.78084  49.11515  40.62431
      13  46.58754  39.69657         16.16054   9.519680  49.11515  40.62431  44.08538  39.78084  44.05993  38.76884  49.08970  39.61231
      13  46.56208  38.68419         16.17298   9.519680  49.08970  39.61231  44.05993  38.76884  44.03447  37.75607  49.06423  38.59954
      13  46.53660  37.67103         16.18542   9.519680  49.06423  38.59954  44.03447  37.75607  44.00898  36.74251  49.03874  37.58598
      13  46.51111  36.65708         16.19788   9.519680  49.03874  37.58598  44.00898  36.74251  43.98347  35.72818  49.01324  36.57165
      13  46.48559  35.64236         16.21034   9.519680  49.01324  36.57165  43.98347  35.72818  43.95794  34.71307  48.98771  35.55654
      13  46.46005  34.62686         16.22282   9.519680  48.98771  35.55654  43.95794  34.71307  43.93240  33.69717  48.96216  34.54064
      13  46.43450  33.61057         16.23530   9.519680  48.96216  34.54064  43.93240  33.69717  43.90683  32.68050  48.93660  33.52397
      13  46.40892  32.59350         16.24779   9.519680  48.93660  33.52397  43.90683  32.68050  43.88124  31.66304  48.91101  32.50651
      13  46.38332  31.57565         16.26030   9.519680  48.91101  32.50651  43.88124  31.66304  43.85564  30.64480  48.88540  31.48827
      13  46.35771  30.55702         16.27281   9.519680  48.88540  31.48827  43.85564  30.64480  43.83001  29.62577  48.85978  30.46924
      13  46.33207  29.53760         16.28533   9.519680  48.85978  30.46924  43.83001  29.62577  43.80437  28.60596  48.83413  29.44943
      13  46.30642  28.51740         16.29786   9.519680  48.83413  29.44943  43.80437  28.60596  43.77870  27.58537  48.80847  28.42884
      13  46.28074  27.49641         16.31040   9.519680  48.80847  28.42884  43.77870  27.58537  43.75302  26.56399  48.78278  27.40746
      13  46.25505  26.47464         16.32296   9.519680  48.78278  27.40746  43.75302  26.56399  43.72731  25.54182  48.75708  26.38529
      13  46.22933  25.45208         16.33552   9.519680  48.75708  26.38529  43.72731  25.54182  43.70159  24.51887  48.73136  25.36234
      13  46.20360  24.42873         16.34809   9.519680  48.73136  25.36234  43.70159  24.51887  43.67584  23.49513  48.70561  24.33860
      13  46.17785  23.40460         16.36067   9.519680  48.70561  24.33860  43.67584  23.49513  43.65008  22.47060  48.67985  23.31407
      13  46.15207  22.37968         16.37326   9.519680  48.67985  23.31407  43.65008  22.47060  43.62430  21.44529  48.65406  22.28876
      13  46.12628  21.35397         16.38586   9.519680  48.65406  22.28876  43.62430  21.44529  43.59849  20.41918  48.62826  21.26265
      13  46.10047  20.32747         16.39847   9.519680  48.62826  21.26265  43.59849  20.41918  43.57267  19.39229  48.60244  20.23576
      13  46.07463  19.30018         16.41109   9.519680  48.60244  20.23576  43.57267  19.39229  43.54683  18.36460  48.57659  19.20807
      13  46.04878  18.27210         16.42371   9.519680  48.57659  19.20807  43.54683  18.36460  43.52096  17.33613  48.55073  18.17960
      13  46.02291  17.24323         16.43635   9.519680  48.55073  18.17960  43.52096  17.33613  43.49508  16.30686  48.52485  17.15033
      13  45.99701  16.21357         16.44900   9.519680  48.52485  17.15033  43.49508  16.30686  43.46918  15.27680  48.49895  16.12027
      13  45.97110  15.18311         16.46166   9.519680  48.49895  16.12027  43.46918  15.27680  43.44326  14.24595  48.47302  15.08942
      13  45.94517  14.15186         16.47433   9.519680  48.47302  15.08942  43.44326  14.24595  43.41731  13.21431  48.44708  14.05778
      13  45.91921  13.11982         16.48700   9.519680  48.44708  14.05778  43.41731  13.21431  43.39135  12.18187  48.42112  13.02534
      13  45.89324  12.08699         16.49969   9.519680  48.42112  13.02534  43.39135  12.18187  43.36537  11.14863  48.39513  11.99211
      13  45.86725  11.05336         16.51239   9.519680  48.39513  11.99211  43.36537  11.14863  43.33936  10.11461  48.36913  10.95808
      13  45.84124  10.01893         16.52509   9.519680  48.36913  10.95808  43.33936  10.11461  43.31334   9.07978  48.34311   9.92325
      13  45.81520   8.98371         16.53781   9.519680  48.34311   9.92325  43.31334   9.07978  43.28730   8.04416  48.31707   8.88763
      13  45.78915   7.94769         16.55054   9.519680  48.31707   8.88763  43.28730   8.04416  43.26124   7.00775  48.29100   7.85122
      13  45.76308   6.91087         16.56327   9.519680  48.29100   7.85122  43.26124   7.00775  43.23515   5.97053  48.26492   6.81400
      13  45.73699   5.87326         16.57602   9.519680  48.26492   6.81400  43.23515   5.97053  43.20905   4.93252  48.23882   5.77599
      13  45.71087   4.83485         16.58878   9.519680  48.23882   5.77599  43.20905   4.93252  43.18293   3.89371  48.21269   4.73718
      13  45.68474   3.79564         16.60154   9.519680  48.21269   4.73718  43.18293   3.89371  43.15678   2.85409  48.18655   3.69757
      13  45.65859   2.75562         16.61432   9.519680  48.18655   3.69757  43.15678   2.85409  43.13062   1.81368  48.16039   2.65715
      13  45.63241   1.71481         16.62710   9.519680  48.16039   2.65715  43.13062   1.81368  43.10444   0.77247  48.13420   1.61594
      13  45.60622   0.67320         16.63990   9.519680  48.13420   1.61594  43.10444   0.77247  43.07823  -0.26954  48.10800   0.57393
      12  32.10330 127.93542         16.31040  10.281000  34.58082 128.85892  29.66110 127.96654  29.62577 127.01192  34.54549 127.90430
      12  32.06795 126.98044         16.32296  10.281000  34.54549 127.90430  29.62577 127.01192  29.59041 126.05657  34.51013 126.94895
      12  32.03258 126.02472         16.33552  10.281000  34.51013 126.94895  29.59041 126.05657  29.55502 125.10048  34.47474 125.99286
      12  31.99718 125.06826         16.34809  10.281000  34.47474 125.99286  29.55502 125.10048  29.51961 124.14366  34.43933 125.03604
      12  31.96175 124.11107         16.36067  10.281000  34.43933 125.03604  29.51961 124.14366  29.48417 123.18610  34.40389 124.07848
      12  31.92629 123.15314         16.37326  10.281000  34.40389 124.07848  29.48417 123.18610  29.44870 122.22780  34.36842 123.12018
      12  31.89081 122.19447         16.38586  10.281000  34.36842 123.12018  29.44870 122.22780  29.41320 121.26876  34.33292 122.16114
      12  31.85530 121.23507         16.39847  10.281000  34.33292 122.16114  29.41320 121.26876  29.37768 120.30899  34.29740 121.20137
      12  31.81976 120.27492         16.41109  10.281000  34.29740 121.20137  29.37768 120.30899  29.34213 119.34848  34.26185 120.24086
      12  31.78420 119.31404         16.42371  10.281000  34.26185 120.24086  29.34213 119.34848  29.30655 118.38723  34.22627 119.27961
      12  31.74861 118.35242         16.43635  10.281000  34.22627 119.27961  29.30655 118.38723  29.27094 117.42524  34.19067 118.31762
      12  31.71299 117.39006         16.44900  10.281000  34.19067 118.31762  29.27094 117.42524  29.23531 116.46251  34.15503 117.35489
      12  31.67734 116.42696         16.46166  10.281000  34.15503 117.35489  29.23531 116.46251  29.19965 115.49903  34.11937 116.39141
      12  31.64167 115.46312         16.47433  10.281000  34.11937 116.39141  29.19965 115.49903  29.16396 114.53482  34.08368 115.42720
      12  31.60597 114.49853         16.48700  10.281000  34.08368 115.42720  29.16396 114.53482  29.12825 113.56987  34.04797 114.46225
      12  31.57024 113.53321         16.49969  10.281000  34.04797 114.46225  29.12825 113.56987  29.09250 112.60417  34.01223 113.49655
      12  31.53448 112.56714         16.51239  10.281000  34.01223 113.49655  29.09250 112.60417  29.05673 111.63773  33.97646 112.53011
      12  31.49870 111.60033         16.52509  10.281000  33.97646 112.53011  29.05673 111.63773  29.02094 110.67054  33.94066 111.56292
      12  31.46288 110.63277         16.53781  10.281000  33.94066 111.56292  29.02094 110.67054  28.98511 109.70262  33.90483 110.59500
      12  31.42705 109.66447         16.55054  10.281000  33.90483 110.59500  28.98511 109.70262  28.94926 108.73394  33.86898 109.62632
      12  31.39118 108.69542         16.56327  10.281000  33.86898 109.62632  28.94926 108.73394  28.91338 107.76452  33.83310 108.65690
      12  31.35528 107.72563         16.57602  10.281000  33.83310 108.65690  28.91338 107.76452  28.87747 106.79436  33.79719 107.68674
      12  31.31936 106.75509         16.58878  10.281000  33.79719 107.68674  28.87747 106.79436  28.84153 105.82345  33.76126 106.71583
      12  31.28341 105.78381         16.60154  10.281000  33.76126 106.71583  28.84153 105.82345  28.80557 104.85179  33.72529 105.74417
      12  31.24744 104.81177         16.61432  10.281000  33.72529 105.74417  28.80557 104.85179  28.76958 103.87938  33.68930 104.77176
      12  31.21143 103.83899         16.62710  10.281000  33.68930 104.77176  28.76958 103.87938  28.73356 102.90623  33.65328 103.79861
      12  31.17540 102.86546         16.63990  10.281000  33.65328 103.79861  28.73356 102.90623  28.69751 101.93232  33.61724 102.82470
      12  31.13934 101.89119         16.65270  10.281000  33.61724 102.82470  28.69751 101.93232  28.66144 100.95767  33.58116 101.85005
      12  31.10325 100.91616         16.66552  10.281000  33.58116 101.85005  28.66144 100.95767  28.62534  99.98227  33.54506 100.87465
      12  31.06713  99.94038         16.67834  10.281000  33.54506 100.87465  28.62534  99.98227  28.58921  99.00611  33.50893  99.89849
      12  31.03099  98.96385         16.69117  10.281000  33.50893  99.89849  28.58921  99.00611  28.55305  98.02921  33.47277  98.92159
      12  30.99482  97.98657         16.70402  10.281000  33.47277  98.92159  28.55305  98.02921  28.51687  97.05155  33.43659  97.94393
      12  30.95862  97.00854         16.71687  10.281000  33.43659  97.94393  28.51687  97.05155  28.48065  96.07314  33.40037  96.96552
      12  30.92239  96.02975         16.72974  10.281000  33.40037  96.96552  28.48065  96.07314  28.44441  95.09398  33.36413  95.98636
      12  30.88614  95.05021         16.74261  10.281000  33.36413  95.98636  28.44441  95.09398  28.40814  94.11407  33.32786  95.00645
      12  30.84985  94.06992         16.75550  10.281000  33.32786  95.00645  28.40814  94.11407  28.37185  93.13340  33.29157  94.02578
      12  30.81354  93.08887         16.76839  10.281000  33.29157  94.02578  28.37185  93.13340  28.33552  92.15197  33.25524  93.04435
      12  30.77721  92.10707         16.78129  10.281000  33.25524  93.04435  28.33552  92.15197  28.29917  91.16979  33.21889  92.06217
      12  30.74084  91.12452         16.79421  10.281000  33.21889  92.06217  28.29917  91.16979  28.26279  90.18686  33.18251  91.07924
      12  30.70444  90.14120         16.80713  10.281000  33.18251  91.07924  28.26279  90.18686  28.22638  89.20317  33.14610  90.09555
      12  30.66802  89.15713         16.82006  10.281000  33.14610  90.09555  28.22638  89.20317  28.18994  88.21872  33.10966  89.11110
      12  30.63157  88.17231         16.83301  10.281000  33.10966  89.11110  28.18994  88.21872  28.15348  87.23351  33.07320  88.12589
      12  30.59509  87.18672         16.84596  10.281000  33.07320  88.12589  28.15348  87.23351  28.11698  86.24755  33.03671  87.13993
      12  30.55858  86.20038         16.85892  10.281000  33.03671  87.13993  28.11698  86.24755  28.08046  85.26083  33.00018  86.15321
      12  30.52205  85.21327         16.87190  10.281000  33.00018  86.15321  28.08046  85.26083  28.04391  84.27334  32.96364  85.16572
      12  30.48549  84.22541         16.88488  10.281000  32.96364  85.16572  28.04391  84.27334  28.00734  83.28510  32.92706  84.17748
      12  30.44890  83.23679         16.89787  10.281000  32.92706  84.17748  28.00734  83.28510  27.97073  82.29610  32.89045  83.18848
      12  30.41228  82.24741         16.91088  10.281000  32.89045  83.18848  27.97073  82.29610  27.93410  81.30633  32.85382  82.19871
      12  30.37563  81.25726         16.92389  10.281000  32.85382  82.19871  27.93410  81.30633  27.89744  80.31581  32.81716  81.20819
      12  30.33895  80.26636         16.93691  10.281000  32.81716  81.20819  27.89744  80.31581  27.86075  79.32452  32.78047  80.21690
      12  30.30225  79.27469         16.94995  10.281000  32.78047  80.21690  27.86075  79.32452  27.82403  78.33247  32.74375  79.22485
      12  30.26552  78.28225         16.96299  10.281000  32.74375  79.22485  27.82403  78.33247  27.78728  77.33966  32.70700  78.23204
      12  30.22876  77.28906         16.97604  10.281000  32.70700  78.23204  27.78728  77.33966  27.75051  76.34608  32.67023  77.23846
      12  30.19197  76.29510         16.98911  10.281000  32.67023  77.23846  27.75051  76.34608  27.71370  75.35174  32.63343  76.24412
      12  30.15515  75.30037         17.00218  10.281000  32.63343  76.24412  27.71370  75.35174  27.67687  74.35663  32.59659  75.24901
      12  30.11830  74.30488         17.01527  10.281000  32.59659  75.24901  27.67687  74.35663  27.64001  73.36076  32.55974  74.25314
      12  30.08143  73.30863         17.02836  10.281000  32.55974  74.25314  27.64001  73.36076  27.60313  72.36412  32.52285  73.25650
      12  30.04453  72.31160         17.04146  10.281000  32.52285  73.25650  27.60313  72.36412  27.56621  71.36671  32.48593  72.25909
      12  30.00760  71.31381         17.05458  10.281000  32.48593  72.25909  27.56621  71.36671  27.52926  70.36854  32.44899  71.26092
      12  29.97064  70.31526         17.06770  10.281000  32.44899  71.26092  27.52926  70.36854  27.49229  69.36959  32.41201  70.26197
      12  29.93365  69.31593         17.08083  10.281000  32.41201  70.26197  27.49229  69.36959  27.45529  68.36988  32.37501  69.26226
      12  29.89664  68.31583         17.09398  10.281000  32.37501  69.26226  27.45529  68.36988  27.41826  67.36940  32.33798  68.26178
      12  29.85959  67.31497         17.10713  10.281000  32.33798  68.26178  27.41826  67.36940  27.38120  66.36815  32.30092  67.26053
      12  29.82252  66.31333         17.12030  10.281000  32.30092  67.26053  27.38120  66.36815  27.34411  65.36613  32.26384  66.25851
      12  29.78542  65.31093         17.13347  10.281000  32.26384  66.25851  27.34411  65.36613  27.30700  64.36334  32.22672  65.25572
      12  29.74829  64.30775         17.14666  10.281000  32.22672  65.25572  27.30700  64.36334  27.26985  63.35978  32.18958  64.25216
      12  29.71113  63.30380         17.15985  10.281000  32.18958  64.25216  27.26985  63.35978  27.23268  62.35544  32.15240  63.24782
      12  29.67394  62.29908         17.17306  10.281000  32.15240  63.24782  27.23268  62.35544  27.19548  61.35033  32.11520  62.24271
      12  29.63673  61.29358         17.18627  10.281000  32.11520  62.24271  27.19548  61.35033  27.15825  60.34445  32.07797  61.23683
      12  29.59948  60.28731         17.19950  10.281000  32.07797  61.23683  27.15825  60.34445  27.12099  59.33780  32.04071  60.23018
      12  29.56221  59.28027         17.21273  10.281000  32.04071  60.23018  27.12099  59.33780  27.08370  58.33037  32.00343  59.22275
      12  29.52491  58.27245         17.22598  10.281000  32.00343  59.22275  27.08370  58.33037  27.04639  57.32216  31.96611  58.21454
      12  29.48758  57.26386         17.23923  10.281000  31.96611  58.21454  27.04639  57.32216  27.00904  56.31318  31.92876  57.20556
      12  29.45022  56.25449         17.25250  10.281000  31.92876  57.20556  27.00904  56.31318  26.97167  55.30342  31.89139  56.19580
      12  29.41283  55.24434         17.26578  10.281000  31.89139  56.19580  26.97167  55.30342  26.93427  54.29288  31.85399  55.18526
      12  29.37541  54.23342         17.27906  10.281000  31.85399  55.18526  26.93427  54.29288  26.89684  53.28157  31.81656  54.17395
      12  29.33797  53.22172         17.29236  10.281000  31.81656  54.17395  26.89684  53.28157  26.85938  52.26948  31.77910  53.16186
      12  29.30049  52.20924         17.30567  10.281000  31.77910  53.16186  26.85938  52.26948  26.82189  51.25661  31.74161  52.14899
      12  29.26299  51.19598         17.31898  10.281000  31.74161  52.14899  26.82189  51.25661  26.78437  50.24296  31.70409  51.13534
      12  29.22546  50.18194         17.33231  10.281000  31.70409  51.13534  26.78437  50.24296  26.74682  49.22853  31.66654  50.12091
      12  29.18790  49.16712         17.34565  10.281000  31.66654  50.12091  26.74682  49.22853  26.70925  48.21332  31.62897  49.10570
      12  29.15031  48.15152         17.35900  10.281000  31.62897  49.10570  26.70925  48.21332  26.67164  47.19733  31.59137  48.08971
      12  29.11269  47.13513         17.37235  10.281000  31.59137  48.08971  26.67164  47.19733  26.63401  46.18056  31.55373  47.07294
      12  29.07504  46.11797         17.38572  10.281000  31.55373  47.07294  26.63401  46.18056  26.59635  45.16300  31.51607  46.05538
      12  29.03736  45.10002         17.39910  10.281000  31.51607  46.05538  26.59635  45.16300  26.55866  44.14466  31.47838  45.03704
      12  28.99966  44.08129         17.41249  10.281000  31.47838  45.03704  26.55866  44.14466  26.52094  43.12554  31.44066  44.01792
      12  28.96192  43.06178         17.42589  10.281000  31.44066  44.01792  26.52094  43.12554  26.48319  42.10564  31.40291  42.99801
      12  28.92416  42.04148         17.43930  10.281000  31.40291  42.99801  26.48319  42.10564  26.44541  41.08494  31.36513  41.97732
      12  28.88637  41.02040         17.45272  10.281000  31.36513  41.97732  26.44541  41.08494  26.40760  40.06347  31.32732  40.95585
      12  28.84855  39.99853         17.46615  10.281000  31.32732  40.95585  26.40760  40.06347  26.36977  39.04120  31.28949  39.93358
      12  28.81069  38.97587         17.47959  10.281000  31.28949  39.93358  26.36977  39.04120  26.33190  38.01816  31.25162  38.91053
      12  28.77281  37.95243         17.49304  10.281000  31.25162  38.91053  26.33190  38.01816  26.29401  36.99432  31.21373  37.88670
      12  28.73491  36.92820         17.50650  10.281000  31.21373  37.88670  26.29401  36.99432  26.25608  35.96969  31.17580  36.86207
      12  28.69697  35.90318         17.51998  10.281000  31.17580  36.86207  26.25608  35.96969  26.21813  34.94428  31.13785  35.83666
      12  28.65900  34.87737         17.53346  10.281000  31.13785  35.83666  26.21813  34.94428  26.18015  33.91808  31.09987  34.81046
      12  28.62100  33.85077         17.54695  10.281000  31.09987  34.81046  26.18015  33.91808  26.14214  32.89109  31.06186  33.78347
      12  28.58298  32.82339         17.56045  10.281000  31.06186  33.78347  26.14214  32.89109  26.10410  31.86330  31.02382  32.75568
      12  28.54492  31.79521         17.57397  10.281000  31.02382  32.75568  26.10410  31.86330  26.06603  30.83473  30.98575  31.72711
      12  28.50684  30.76624         17.58749  10.281000  30.98575  31.72711  26.06603  30.83473  26.02793  29.80537  30.94765  30.69775
      12  28.46872  29.73648         17.60102  10.281000  30.94765  30.69775  26.02793  29.80537  25.98980  28.77521  30.90952  29.66759
      12  28.43058  28.70593         17.61457  10.281000  30.90952  29.66759  25.98980  28.77521  25.95164  27.74426  30.87136  28.63664
      12  28.39241  27.67458         17.62812  10.281000  30.87136  28.63664  25.95164  27.74426  25.91345  26.71252  30.83317  27.60490
      12  28.35421  26.64244         17.64169  10.281000  30.83317  27.60490  25.91345  26.71252  25.87524  25.67998  30.79496  26.57236
      12  28.31597  25.60951         17.65526  10.281000  30.79496  26.57236  25.87524  25.67998  25.83699  24.64665  30.75671  25.53903
      12  28.27771  24.57578         17.66885  10.281000  30.75671  25.53903  25.83699  24.64665  25.79871  23.61252  30.71844  24.50490
      12  28.23942  23.54125         17.68245  10.281000  30.71844  24.50490  25.79871  23.61252  25.76041  22.57760  30.68013  23.46998
      12  28.20110  22.50593         17.69605  10.281000  30.68013  23.46998  25.76041  22.57760  25.72208  21.54188  30.64180  22.43426
      12  28.16275  21.46982         17.70967  10.281000  30.64180  22.43426  25.72208  21.54188  25.68371  20.50537  30.60343  21.39775
      12  28.12438  20.43290         17.72330  10.281000  30.60343  21.39775  25.68371  20.50537  25.64532  19.46805  30.56504  20.36043
      12  28.08597  19.39519         17.73694  10.281000  30.56504  20.36043  25.64532  19.46805  25.60690  18.42994  30.52662  19.32232
      12  28.04753  18.35668         17.75059  10.281000  30.52662  19.32232  25.60690  18.42994  25.56844  17.39103  30.48816  18.28341
      12  28.00906  17.31737         17.76425  10.281000  30.48816  18.28341  25.56844  17.39103  25.52996  16.35132  30.44968  17.24370
      12  27.97057  16.27726         17.77792  10.281000  30.44968  17.24370  25.52996  16.35132  25.49145  15.31081  30.41117  16.20319
      12  27.93204  15.23635         17.79160  10.281000  30.41117  16.20319  25.49145  15.31081  25.45291  14.26950  30.37263  15.16188
      12  27.89348  14.19464         17.80529  10.281000  30.37263  15.16188  25.45291  14.26950  25.41434  13.22739  30.33406  14.11977
      12  27.85490  13.15212         17.81899  10.281000  30.33406  14.11977  25.41434  13.22739  25.37574  12.18448  30.29546  13.07686
      12  27.81628  12.10881         17.83270  10.281000  30.29546  13.07686  25.37574  12.18448  25.33711  11.14076  30.25683  12.03314
      12  27.77764  11.06469         17.84642  10.281000  30.25683  12.03314  25.33711  11.14076  25.29845  10.09624  30.21817  10.98862
      12  27.73896  10.01977         17.86016  10.281000  30.21817  10.98862  25.29845  10.09624  25.25976   9.05092  30.17948   9.94330
      12  27.70026   8.97404         17.87390  10.281000  30.17948   9.94330  25.25976   9.05092  25.22104   8.00479  30.14076   8.89717
      12  27.66152   7.92751         17.88766  10.281000  30.14076   8.89717  25.22104   8.00479  25.18229   6.95786  30.10201   7.85024
      12  27.62276   6.88018         17.90142  10.281000  30.10201   7.85024  25.18229   6.95786  25.14351   5.91012  30.06323   6.80250
      12  27.58396   5.83204         17.91520  10.281000  30.06323   6.80250  25.14351   5.91012  25.10470   4.86157  30.02442   5.75395
      12  27.54514   4.78309         17.92898  10.281000  30.02442   5.75395  25.10470   4.86157  25.06586   3.81222  29.98558   4.70460
      12  27.50629   3.73333         17.94278  10.281000  29.98558   4.70460  25.06586   3.81222  25.02699   2.76206  29.94671   3.65444
      12  27.46740   2.68277         17.95659  10.281000  29.94671   3.65444  25.02699   2.76206  24.98809   1.71110  29.90781   2.60348
      12  27.42849   1.63140         17.97041  10.281000  29.90781   2.60348  24.98809   1.71110  24.94916   0.65932  29.86888   1.55170
      12  27.38954   0.57922         17.98423  10.281000  29.86888   1.55170  24.94916   0.65932  24.91020  -0.39326  29.82993   0.49911
      11  12.38084 127.77819         17.72330  11.124100  14.85677 128.72660   9.95071 127.76193   9.90491 126.82978  14.81097 127.79446
      11  12.33502 126.84569         17.73694  11.124100  14.81097 127.79446   9.90491 126.82978   9.85907 125.89692  14.76513 126.86159
      11  12.28916 125.91246         17.75059  11.124100  14.76513 126.86159   9.85907 125.89692   9.81320 124.96334  14.71925 125.92801
      11  12.24327 124.97852         17.76425  11.124100  14.71925 125.92801   9.81320 124.96334   9.76729 124.02903  14.67334 124.99371
      11  12.19734 124.04386         17.77792  11.124100  14.67334 124.99371   9.76729 124.02903   9.72134 123.09401  14.62740 124.05869
      11  12.15138 123.10848         17.79160  11.124100  14.62740 124.05869   9.72134 123.09401   9.67536 122.15828  14.58142 123.12295
      11  12.10538 122.17238         17.80529  11.124100  14.58142 123.12295   9.67536 122.15828   9.62934 121.22182  14.53540 122.18649
      11  12.05935 121.23556         17.81899  11.124100  14.53540 122.18649   9.62934 121.22182   9.58329 120.28464  14.48935 121.24931
      11  12.01328 120.29802         17.83270  11.124100  14.48935 121.24931   9.58329 120.28464   9.53721 119.34673  14.44326 120.31141
      11  11.96717 119.35976         17.84642  11.124100  14.44326 120.31141   9.53721 119.34673   9.49108 118.40811  14.39714 119.37278
      11  11.92103 118.42077         17.86016  11.124100  14.39714 119.37278   9.49108 118.40811   9.44493 117.46876  14.35098 118.43344
      11  11.87486 117.48107         17.87390  11.124100  14.35098 118.43344   9.44493 117.46876   9.39873 116.52870  14.30479 117.49337
      11  11.82865 116.54064         17.88766  11.124100  14.30479 117.49337   9.39873 116.52870   9.35250 115.58790  14.25856 116.55258
      11  11.78240 115.59948         17.90142  11.124100  14.25856 116.55258   9.35250 115.58790   9.30624 114.64639  14.21230 115.61106
      11  11.73612 114.65761         17.91520  11.124100  14.21230 115.61106   9.30624 114.64639   9.25994 113.70415  14.16600 114.66882
      11  11.68980 113.71500         17.92898  11.124100  14.16600 114.66882   9.25994 113.70415   9.21360 112.76118  14.11966 113.72586
      11  11.64345 112.77167         17.94278  11.124100  14.11966 113.72586   9.21360 112.76118   9.16723 111.81749  14.07329 112.78217
      11  11.59706 111.82762         17.95659  11.124100  14.07329 112.78217   9.16723 111.81749   9.12083 110.87307  14.02688 111.83775
      11  11.55063 110.88284         17.97041  11.124100  14.02688 111.83775   9.12083 110.87307   9.07438 109.92793  13.98044 110.89260
      11  11.50417 109.93733         17.98423  11.124100  13.98044 110.89260   9.07438 109.92793   9.02791 108.98206  13.93396 109.94673
      11  11.45768 108.99110         17.99807  11.124100  13.93396 109.94673   9.02791 108.98206   8.98139 108.03546  13.88745 109.00013
      11  11.41115 108.04413         18.01192  11.124100  13.88745 109.00013   8.98139 108.03546   8.93484 107.08813  13.84090 108.05281
      11  11.36458 107.09644         18.02578  11.124100  13.84090 108.05281   8.93484 107.08813   8.88826 106.14008  13.79431 107.10475
      11  11.31797 106.14802         18.03966  11.124100  13.79431 107.10475   8.88826 106.14008   8.84163 105.19129  13.74769 106.15596
      11  11.27133 105.19887         18.05354  11.124100  13.74769 106.15596   8.84163 105.19129   8.79498 104.24177  13.70103 105.20645
      11  11.22466 104.24899         18.06743  11.124100  13.70103 105.20645   8.79498 104.24177   8.74828 103.29153  13.65434 104.25620
      11  11.17795 103.29837         18.08133  11.124100  13.65434 104.25620   8.74828 103.29153   8.70155 102.34055  13.60761 103.30522
      11  11.13120 102.34703         18.09525  11.124100  13.60761 103.30522   8.70155 102.34055   8.65479 101.38884  13.56085 102.35351
      11  11.08442 101.39495         18.10917  11.124100  13.56085 102.35351   8.65479 101.38884   8.60799 100.43640  13.51405 101.40107
      11  11.03760 100.44215         18.12311  11.124100  13.51405 101.40107   8.60799 100.43640   8.56115  99.48322  13.46721 100.44789
      11  10.99074  99.48860         18.13705  11.124100  13.46721 100.44789   8.56115  99.48322   8.51428  98.52931  13.42034  99.49399
      11  10.94385  98.53433         18.15101  11.124100  13.42034  99.49399   8.51428  98.52931   8.46737  97.57467  13.37343  98.53934
      11  10.89692  97.57932         18.16498  11.124100  13.37343  98.53934   8.46737  97.57467   8.42042  96.61929  13.32648  97.58397
      11  10.84996  96.62357         18.17896  11.124100  13.32648  97.58397   8.42042  96.61929   8.37344  95.66318  13.27950  96.62785
      11  10.80296  95.66709         18.19295  11.124100  13.27950  96.62785   8.37344  95.66318   8.32642  94.70633  13.23248  95.67100
      11  10.75593  94.70988         18.20695  11.124100  13.23248  95.67100   8.32642  94.70633   8.27937  93.74875  13.18543  94.71342
      11  10.70885  93.75192         18.22096  11.124100  13.18543  94.71342   8.27937  93.74875   8.23228  92.79042  13.13834  93.75510
      11  10.66175  92.79323         18.23498  11.124100  13.13834  93.75510   8.23228  92.79042   8.18515  91.83137  13.09121  92.79604
      11  10.61460  91.83380         18.24901  11.124100  13.09121  92.79604   8.18515  91.83137   8.13799  90.87157  13.04405  91.83624
      11  10.56742  90.87364         18.26305  11.124100  13.04405  91.83624   8.13799  90.87157   8.09079  89.91103  12.99685  90.87571
      11  10.52020  89.91273         18.27711  11.124100  12.99685  90.87571   8.09079  89.91103   8.04356  88.94976  12.94961  89.91443
      11  10.47295  88.95109         18.29117  11.124100  12.94961  89.91443   8.04356  88.94976   7.99628  87.98774  12.90234  88.95242
      11  10.42566  87.98870         18.30525  11.124100  12.90234  88.95242   7.99628  87.98774   7.94898  87.02499  12.85503  87.98966
      11  10.37833  87.02558         18.31933  11.124100  12.85503  87.98966   7.94898  87.02499   7.90163  86.06149  12.80769  87.02617
      11  10.33097  86.06171         18.33343  11.124100  12.80769  87.02617   7.90163  86.06149   7.85425  85.09726  12.76031  86.06193
      11  10.28357  85.09710         18.34754  11.124100  12.76031  86.06193   7.85425  85.09726   7.80683  84.13228  12.71289  85.09695
      11  10.23614  84.13175         18.36166  11.124100  12.71289  85.09695   7.80683  84.13228   7.75938  83.16656  12.66544  84.13123
      11  10.18866  83.16566         18.37579  11.124100  12.66544  84.13123   7.75938  83.16656   7.71189  82.20009  12.61795  83.16476
      11  10.14116  82.19882         18.38993  11.124100  12.61795  83.16476   7.71189  82.20009   7.66436  81.23288  12.57042  82.19756
      11  10.09361  81.23124         18.40408  11.124100  12.57042  82.19756   7.66436  81.23288   7.61680  80.26493  12.52286  81.22960
      11  10.04603  80.26292         18.41824  11.124100  12.52286  81.22960   7.61680  80.26493   7.56920  79.29623  12.47526  80.26090
      11   9.99841  79.29385         18.43242  11.124100  12.47526  80.26090   7.56920  79.29623   7.52156  78.32679  12.42762  79.29146
      11   9.95076  78.32403         18.44660  11.124100  12.42762  79.29146   7.52156  78.32679   7.47389  77.35660  12.37995  78.32127
      11   9.90306  77.35347         18.46080  11.124100  12.37995  78.32127   7.47389  77.35660   7.42618  76.38566  12.33224  77.35034
      11   9.85534  76.38216         18.47500  11.124100  12.33224  77.35034   7.42618  76.38566   7.37843  75.41398  12.28449  76.37865
      11   9.80757  75.41010         18.48922  11.124100  12.28449  76.37865   7.37843  75.41398   7.33065  74.44155  12.23671  75.40622
      11   9.75977  74.43730         18.50345  11.124100  12.23671  75.40622   7.33065  74.44155   7.28283  73.46837  12.18889  74.43304
      11   9.71193  73.46374         18.51769  11.124100  12.18889  74.43304   7.28283  73.46837   7.23497  72.49444  12.14103  73.45912
      11   9.66406  72.48944         18.53194  11.124100  12.14103  73.45912   7.23497  72.49444   7.18708  71.51976  12.09314  72.48444
      11   9.61614  71.51439         18.54620  11.124100  12.09314  72.48444   7.18708  71.51976   7.13915  70.54434  12.04521  71.50901
      11   9.56819  70.53859         18.56047  11.124100  12.04521  71.50901   7.13915  70.54434   7.09118  69.56816  11.99724  70.53283
      11   9.52021  69.56203         18.57475  11.124100  11.99724  70.53283   7.09118  69.56816   7.04318  68.59123  11.94923  69.55590
      11   9.47218  68.58473         18.58905  11.124100  11.94923  69.55590   7.04318  68.59123   6.99514  67.61355  11.90119  68.57822
      11   9.42412  67.60667         18.60335  11.124100  11.90119  68.57822   6.99514  67.61355   6.94706  66.63512  11.85311  67.59979
      11   9.37603  66.62786         18.61767  11.124100  11.85311  67.59979   6.94706  66.63512   6.89894  65.65593  11.80500  66.62060
      11   9.32789  65.64830         18.63199  11.124100  11.80500  66.62060   6.89894  65.65593   6.85079  64.67599  11.75685  65.64066
      11   9.27972  64.66798         18.64633  11.124100  11.75685  65.64066   6.85079  64.67599   6.80260  63.69530  11.70866  64.65997
      11   9.23152  63.68691         18.66068  11.124100  11.70866  64.65997   6.80260  63.69530   6.75437  62.71385  11.66043  63.67852
      11   9.18327  62.70508         18.67504  11.124100  11.66043  63.67852   6.75437  62.71385   6.70611  61.73164  11.61217  62.69632
      11   9.13499  61.72250         18.68941  11.124100  11.61217  62.69632   6.70611  61.73164   6.65781  60.74868  11.56387  61.71336
      11   9.08667  60.73916         18.70379  11.124100  11.56387  61.71336   6.65781  60.74868   6.60947  59.76497  11.51553  60.72964
      11   9.03831  59.75507         18.71819  11.124100  11.51553  60.72964   6.60947  59.76497   6.56110  58.78050  11.46715  59.74517
      11   8.98992  58.77022         18.73259  11.124100  11.46715  59.74517   6.56110  58.78050   6.51268  57.79526  11.41874  58.75994
      11   8.94149  57.78461         18.74700  11.124100  11.41874  58.75994   6.51268  57.79526   6.46423  56.80928  11.37029  57.77395
      11   8.89302  56.79824         18.76143  11.124100  11.37029  57.77395   6.46423  56.80928   6.41575  55.82253  11.32180  56.78720
      11   8.84451  55.81111         18.77587  11.124100  11.32180  56.78720   6.41575  55.82253   6.36722  54.83502  11.27328  55.79969
      11   8.79597  54.82322         18.79032  11.124100  11.27328  55.79969   6.36722  54.83502   6.31866  53.84675  11.22472  54.81143
      11   8.74739  53.83458         18.80478  11.124100  11.22472  54.81143   6.31866  53.84675   6.27006  52.85773  11.17612  53.82240
      11   8.69877  52.84517         18.81925  11.124100  11.17612  53.82240   6.27006  52.85773   6.22143  51.86794  11.12748  52.83261
      11   8.65012  51.85500         18.83373  11.124100  11.12748  52.83261   6.22143  51.86794   6.17275  50.87739  11.07881  51.84206
      11   8.60143  50.86407         18.84822  11.124100  11.07881  51.84206   6.17275  50.87739   6.12404  49.88608  11.03010  50.85075
      11   8.55270  49.87238         18.86273  11.124100  11.03010  50.85075   6.12404  49.88608   6.07529  48.89400  10.98135  49.85868
      11   8.50393  48.87992         18.87724  11.124100  10.98135  49.85868   6.07529  48.89400   6.02651  47.90116  10.93256  48.86584
      11   8.45512  47.88670         18.89177  11.124100  10.93256  48.86584   6.02651  47.90116   5.97768  46.90756  10.88374  47.87223
      11   8.40628  46.89271         18.90631  11.124100  10.88374  47.87223   5.97768  46.90756   5.92882  45.91319  10.83488  46.87787
      11   8.35740  45.89796         18.92085  11.124100  10.83488  46.87787   5.92882  45.91319   5.87992  44.91806  10.78598  45.88273
      11   8.30848  44.90245         18.93541  11.124100  10.78598  45.88273   5.87992  44.91806   5.83099  43.92216  10.73704  44.88684
      11   8.25953  43.90617         18.94999  11.124100  10.73704  44.88684   5.83099  43.92216   5.78201  42.92550  10.68807  43.89017
      11   8.21053  42.90912         18.96457  11.124100  10.68807  43.89017   5.78201  42.92550   5.73300  41.92807  10.63906  42.89274
      11   8.16150  41.91130         18.97916  11.124100  10.63906  42.89274   5.73300  41.92807   5.68395  40.92987  10.59001  41.89454
      11   8.11243  40.91272         18.99377  11.124100  10.59001  41.89454   5.68395  40.92987   5.63486  39.93090  10.54092  40.89557
      11   8.06333  39.91337         19.00838  11.124100  10.54092  40.89557   5.63486  39.93090   5.58574  38.93117  10.49179  39.89584
      11   8.01418  38.91325         19.02301  11.124100  10.49179  39.89584   5.58574  38.93117   5.53657  37.93066  10.44263  38.89533
      11   7.96500  37.91236         19.03765  11.124100  10.44263  38.89533   5.53657  37.93066   5.48737  36.92938  10.39343  37.89406
      11   7.91578  36.91070         19.05230  11.124100  10.39343  37.89406   5.48737  36.92938   5.43813  35.92734  10.34419  36.89201
      11   7.86653  35.90827         19.06696  11.124100  10.34419  36.89201   5.43813  35.92734   5.38886  34.92452  10.29492  35.88920
      11   7.81723  34.90507         19.08163  11.124100  10.29492  35.88920   5.38886  34.92452   5.33954  33.92093  10.24560  34.88561
      11   7.76790  33.90109         19.09632  11.124100  10.24560  34.88561   5.33954  33.92093   5.29019  32.91657  10.19625  33.88125
      11   7.71853  32.89634         19.11101  11.124100  10.19625  33.88125   5.29019  32.91657   5.24080  31.91144  10.14686  32.87611
      11   7.66912  31.89082         19.12572  11.124100  10.14686  32.87611   5.24080  31.91144   5.19137  30.90553  10.09743  31.87021
      11   7.61967  30.88453         19.14044  11.124100  10.09743  31.87021   5.19137  30.90553   5.14191  29.89885  10.04796  30.86353
      11   7.57018  29.87746         19.15517  11.124100  10.04796  30.86353   5.14191  29.89885   5.09240  28.89140   9.99846  29.85607
      11   7.52066  28.86962         19.16991  11.124100   9.99846  29.85607   5.09240  28.89140   5.04286  27.88316   9.94892  28.84784
      11   7.47110  27.86100         19.18466  11.124100   9.94892  28.84784   5.04286  27.88316   4.99328  26.87416   9.89934  27.83883
      11   7.42150  26.85160         19.19942  11.124100   9.89934  27.83883   4.99328  26.87416   4.94366  25.86437   9.84972  26.82905
      11   7.37186  25.84143         19.21420  11.124100   9.84972  26.82905   4.94366  25.86437   4.89400  24.85381   9.80006  25.81849
      11   7.32218  24.83048         19.22898  11.124100   9.80006  25.81849   4.89400  24.85381   4.84431  23.84248   9.75037  24.80715
      11   7.27247  23.81875         19.24378  11.124100   9.75037  24.80715   4.84431  23.84248   4.79457  22.83036   9.70063  23.79503
      11   7.22272  22.80625         19.25859  11.124100   9.70063  23.79503   4.79457  22.83036   4.74480  21.81746   9.65086  22.78214
      11   7.17293  21.79296         19.27341  11.124100   9.65086  22.78214   4.74480  21.81746   4.69499  20.80379   9.60105  21.76846
      11   7.12310  20.77890         19.28824  11.124100   9.60105  21.76846   4.69499  20.80379   4.64514  19.78934   9.55120  20.75401
      11   7.07323  19.76405         19.30308  11.124100   9.55120  20.75401   4.64514  19.78934   4.59526  18.77410   9.50131  19.73877
      11   7.02332  18.74843         19.31794  11.124100   9.50131  19.73877   4.59526  18.77410   4.54533  17.75808   9.45139  18.72276
      11   6.97338  17.73202         19.33280  11.124100   9.45139  18.72276   4.54533  17.75808   4.49537  16.74128   9.40143  17.70596
      11   6.92340  16.71483         19.34768  11.124100   9.40143  17.70596   4.49537  16.74128   4.44537  15.72370   9.35142  16.68838
      11   6.87337  15.69686         19.36257  11.124100   9.35142  16.68838   4.44537  15.72370   4.39533  14.70534   9.30138  15.67001
      11   6.82332  14.67810         19.37747  11.124100   9.30138  15.67001   4.39533  14.70534   4.34525  13.68619   9.25130  14.65087
      11   6.77322  13.65856         19.39238  11.124100   9.25130  14.65087   4.34525  13.68619   4.29513  12.66626   9.20119  13.63093
      11   6.72308  12.63824         19.40730  11.124100   9.20119  13.63093   4.29513  12.66626   4.24497  11.64554   9.15103  12.61022
      11   6.67290  11.61713         19.42224  11.124100   9.15103  12.61022   4.24497  11.64554   4.19478  10.62404   9.10084  11.58871
      11   6.62269  10.59523         19.43718  11.124100   9.10084  11.58871   4.19478  10.62404   4.14455   9.60175   9.05060  10.56643
      11   6.57244   9.57255         19.45214  11.124100   9.05060  10.56643   4.14455   9.60175   4.09427   8.57868   9.00033   9.54335
      11   6.52215   8.54908         19.46711  11.124100   9.00033   9.54335   4.09427   8.57868   4.04396   7.55482   8.95002   8.51949
      11   6.47182   7.52483         19.48209  11.124100   8.95002   8.51949   4.04396   7.55482   3.99361   6.53017   8.89967   7.49484
      11   6.42145   6.49978         19.49708  11.124100   8.89967   7.49484   3.99361   6.53017   3.94322   5.50473   8.84928   6.46940
      11   6.37104   5.47395         19.51208  11.124100   8.84928   6.46940   3.94322   5.50473   3.89280   4.47850   8.79886   5.44317
      11   6.32059   4.44733         19.52710  11.124100   8.79886   5.44317   3.89280   4.47850   3.84233   3.45148   8.74839   4.41616
      11   6.27011   3.41991         19.54213  11.124100   8.74839   4.41616   3.84233   3.45148   3.79183   2.42367   8.69789   3.38835
      11   6.21959   2.39171         19.55716  11.124100   8.69789   3.38835   3.79183   2.42367   3.74128   1.39508   8.64734   2.35975
      11   6.16902   1.36272         19.57221  11.124100   8.64734   2.35975   3.74128   1.39508   3.69070   0.36569   8.59676   1.33036
      11   6.11842   0.33293         19.58728  11.124100   8.59676   1.33036   3.69070   0.36569   3.64008  -0.66450   8.54614   0.30018
