\wavsamp version 5.1 (Wed Apr 20 08:45:04 PDT 2005)
\processing time 13:47:46 PST 06/30/2008
\character channelID = 2
| order |x_center |y_center |   wavelength   |  angle   |   x0    |   y0    |   x1    |   y1    |   x2    |   y2    |   x3    |   y3    |
| int   |  real   |  real   |    real        |   real   |  real   |  real   |  real   |  real   |  real   |  real   |  real   |  real   |
       2  78.27220  80.49824         13.90000  -1.200000  95.27889  80.60396  61.28635  81.31601  61.26574  80.39252  95.25829  79.68048
       2  78.25206  79.57476         13.98468  -1.200000  95.25829  79.68048  61.26574  80.39252  61.24607  79.46904  95.23861  78.75700
       2  78.23286  78.65128         14.06935  -1.200000  95.23861  78.75700  61.24607  79.46904  61.22733  78.54556  95.21987  77.83351
       2  78.21458  77.72779         14.15403  -1.200000  95.21987  77.83351  61.22733  78.54556  61.20953  77.62207  95.20207  76.91003
       2  78.19725  76.80431         14.23871  -1.200000  95.20207  76.91003  61.20953  77.62207  61.19266  76.69859  95.18520  75.98655
       2  78.18085  75.88083         14.32338  -1.200000  95.18520  75.98655  61.19266  76.69859  61.17673  75.77511  95.16927  75.06306
       2  78.16539  74.95734         14.40806  -1.200000  95.16927  75.06306  61.17673  75.77511  61.16174  74.85162  95.15428  74.13958
       2  78.15086  74.03386         14.49274  -1.200000  95.15428  74.13958  61.16174  74.85162  61.14767  73.92814  95.14022  73.21610
       2  78.13727  73.11038         14.57741  -1.200000  95.14022  73.21610  61.14767  73.92814  61.13455  73.00466  95.12709  72.29261
       2  78.12461  72.18689         14.66209  -1.200000  95.12709  72.29261  61.13455  73.00466  61.12236  72.08117  95.11490  71.36913
       2  78.11289  71.26341         14.74677  -1.200000  95.11490  71.36913  61.12236  72.08117  61.11111  71.15769  95.10365  70.44565
       2  78.10210  70.33993         14.83145  -1.200000  95.10365  70.44565  61.11111  71.15769  61.10079  70.23421  95.09333  69.52217
       2  78.09225  69.41644         14.91612  -1.200000  95.09333  69.52217  61.10079  70.23421  61.09141  69.31072  95.08395  68.59868
       2  78.08334  68.49296         15.00080  -1.200000  95.08395  68.59868  61.09141  69.31072  61.08296  68.38724  95.07550  67.67520
       2  78.07536  67.56948         15.08548  -1.200000  95.07550  67.67520  61.08296  68.38724  61.07545  67.46376  95.06799  66.75172
       2  78.06831  66.64599         15.17015  -1.200000  95.06799  66.75172  61.07545  67.46376  61.06887  66.54027  95.06141  65.82823
       2  78.06221  65.72251         15.25483  -1.200000  95.06141  65.82823  61.06887  66.54027  61.06323  65.61679  95.05577  64.90475
       2  78.05703  64.79903         15.33951  -1.200000  95.05577  64.90475  61.06323  65.61679  61.05853  64.69331  95.05107  63.98127
       2  78.05280  63.87554         15.42418  -1.200000  95.05107  63.98127  61.05853  64.69331  61.05476  63.76982  95.04730  63.05778
       2  78.04950  62.95206         15.50886  -1.200000  95.04730  63.05778  61.05476  63.76982  61.05192  62.84634  95.04447  62.13430
       2  78.04713  62.02858         15.59354  -1.200000  95.04447  62.13430  61.05192  62.84634  61.05003  61.92286  95.04257  61.21082
       2  78.04570  61.10510         15.67821  -1.200000  95.04257  61.21082  61.05003  61.92286  61.04906  60.99937  95.04161  60.28733
       2  78.04520  60.18161         15.76289  -1.200000  95.04161  60.28733  61.04906  60.99937  61.04904  60.07589  95.04158  59.36385
       2  78.04564  59.25813         15.84757  -1.200000  95.04158  59.36385  61.04904  60.07589  61.04994  59.15241  95.04249  58.44037
       2  78.04702  58.33465         15.93224  -1.200000  95.04249  58.44037  61.04994  59.15241  61.05179  58.22892  95.04433  57.51688
       2  78.04933  57.41116         16.01692  -1.200000  95.04433  57.51688  61.05179  58.22892  61.05457  57.30544  95.04711  56.59340
       2  78.05258  56.48768         16.10160  -1.200000  95.04711  56.59340  61.05457  57.30544  61.05828  56.38196  95.05083  55.66992
       2  78.05676  55.56420         16.18628  -1.200000  95.05083  55.66992  61.05828  56.38196  61.06293  55.45847  95.05548  54.74643
       2  78.06188  54.64071         16.27095  -1.200000  95.05548  54.74643  61.06293  55.45847  61.06852  54.53499  95.06106  53.82295
       2  78.06794  53.71723         16.35563  -1.200000  95.06106  53.82295  61.06852  54.53499  61.07504  53.61151  95.06758  52.89947
       2  78.07492  52.79375         16.44031  -1.200000  95.06758  52.89947  61.07504  53.61151  61.08250  52.68803  95.07504  51.97598
       2  78.08285  51.87026         16.52498  -1.200000  95.07504  51.97598  61.08250  52.68803  61.09089  51.76454  95.08343  51.05250
       2  78.09171  50.94678         16.60966  -1.200000  95.08343  51.05250  61.09089  51.76454  61.10022  50.84106  95.09276  50.12902
       2  78.10151  50.02330         16.69434  -1.200000  95.09276  50.12902  61.10022  50.84106  61.11048  49.91758  95.10303  49.20553
       2  78.11224  49.09981         16.77901  -1.200000  95.10303  49.20553  61.11048  49.91758  61.12168  48.99409  95.11423  48.28205
       2  78.12390  48.17633         16.86369  -1.200000  95.11423  48.28205  61.12168  48.99409  61.13382  48.07061  95.12636  47.35857
       2  78.13651  47.25285         16.94837  -1.200000  95.12636  47.35857  61.13382  48.07061  61.14689  47.14713  95.13943  46.43508
       2  78.15005  46.32936         17.03304  -1.200000  95.13943  46.43508  61.14689  47.14713  61.16089  46.22364  95.15344  45.51160
       2  78.16452  45.40588         17.11772  -1.200000  95.15344  45.51160  61.16089  46.22364  61.17584  45.30016  95.16838  44.58812
       2  78.17993  44.48240         17.20240  -1.200000  95.16838  44.58812  61.17584  45.30016  61.19171  44.37668  95.18426  43.66463
       2  78.19627  43.55891         17.28707  -1.200000  95.18426  43.66463  61.19171  44.37668  61.20853  43.45319  95.20107  42.74115
       2  78.21355  42.63543         17.37175  -1.200000  95.20107  42.74115  61.20853  43.45319  61.22627  42.52971  95.21882  41.81767
       2  78.23177  41.71195         17.45643  -1.200000  95.21882  41.81767  61.22627  42.52971  61.24496  41.60623  95.23750  40.89418
       2  78.25092  40.78846         17.54111  -1.200000  95.23750  40.89418  61.24496  41.60623  61.26458  40.68274  95.25712  39.97070
       2  78.27101  39.86498         17.62578  -1.200000  95.25712  39.97070  61.26458  40.68274  61.28513  39.75926  95.27767  39.04722
       2  78.29203  38.94150         17.71046  -1.200000  95.27767  39.04722  61.28513  39.75926  61.30662  38.83578  95.29917  38.12373
       2  78.31399  38.01801         17.79514  -1.200000  95.29917  38.12373  61.30662  38.83578  61.32905  37.91229  95.32159  37.20025
       2  78.33688  37.09453         17.87981  -1.200000  95.32159  37.20025  61.32905  37.91229  61.35241  36.98881  95.34495  36.27677
       2  78.36071  36.17105         17.96449  -1.200000  95.34495  36.27677  61.35241  36.98881  61.37671  36.06533  95.36925  35.35328
       2  78.38548  35.24756         18.04917  -1.200000  95.36925  35.35328  61.37671  36.06533  61.40194  35.14184  95.39448  34.42980
       2  78.41118  34.32408         18.13384  -1.200000  95.39448  34.42980  61.40194  35.14184  61.42811  34.21836  95.42065  33.50632
       2  78.43781  33.40060         18.21852  -1.200000  95.42065  33.50632  61.42811  34.21836  61.45521  33.29488  95.44775  32.58283
       2  78.46539  32.47711         18.30320  -1.200000  95.44775  32.58283  61.45521  33.29488  61.48325  32.37139  95.47579  31.65935
       2  78.49389  31.55363         18.38787  -1.200000  95.47579  31.65935  61.48325  32.37139  61.51223  31.44791  95.50477  30.73587
       2  78.52333  30.63015         18.47255  -1.200000  95.50477  30.73587  61.51223  31.44791  61.54214  30.52443  95.53468  29.81238
       2  78.55371  29.70666         18.55723  -1.200000  95.53468  29.81238  61.54214  30.52443  61.57298  29.60094  95.56552  28.88890
       2  78.58503  28.78318         18.64190  -1.200000  95.56552  28.88890  61.57298  29.60094  61.60476  28.67746  95.59731  27.96542
       2  78.61728  27.85970         18.72658  -1.200000  95.59731  27.96542  61.60476  28.67746  61.63748  27.75398  95.63002  27.04193
       2  78.65046  26.93621         18.81126  -1.200000  95.63002  27.04193  61.63748  27.75398  61.67113  26.83049  95.66367  26.11845
       2  78.68458  26.01273         18.89594  -1.200000  95.66367  26.11845  61.67113  26.83049  61.70572  25.90701  95.69826  25.19497
       2  78.71964  25.08925         18.98061  -1.200000  95.69826  25.19497  61.70572  25.90701  61.74124  24.98353  95.73379  24.27148
       2  78.75563  24.16576         19.06529  -1.200000  95.73379  24.27148  61.74124  24.98353  61.77770  24.06004  95.77025  23.34800
       2  78.79255  23.24228         19.14997  -1.200000  95.77025  23.34800  61.77770  24.06004  61.81510  23.13656  95.80764  22.42452
       2  78.83042  22.31880         19.23464  -1.200000  95.80764  22.42452  61.81510  23.13656  61.85343  22.21308  95.84597  21.50103
       2  78.86921  21.39531         19.31932  -1.200000  95.84597  21.50103  61.85343  22.21308  61.89269  21.28959  95.88524  20.57755
       2  78.90895  20.47183         19.40400  -1.200000  95.88524  20.57755  61.89269  21.28959  61.93289  20.36611  95.92544  19.65407
       2  78.94962  19.54835         19.48867  -1.200000  95.92544  19.65407  61.93289  20.36611  61.97403  19.44263  95.96657  18.73058
       2  78.99122  18.62486         19.57335  -1.200000  95.96657  18.73058  61.97403  19.44263  62.01610  18.51914  96.00865  17.80710
       2  79.03376  17.70138         19.65803  -1.200000  96.00865  17.80710  62.01610  18.51914  62.05911  17.59566  96.05165  16.88362
       2  79.07724  16.77790         19.74270  -1.200000  96.05165  16.88362  62.05911  17.59566  62.10306  16.67218  96.09560  15.96013
       2  79.12165  15.85441         19.82738  -1.200000  96.09560  15.96013  62.10306  16.67218  62.14793  15.74869  96.14048  15.03665
       2  79.16700  14.93093         19.91206  -1.200000  96.14048  15.03665  62.14793  15.74869  62.19375  14.82521  96.18629  14.11317
       2  79.21328  14.00745         19.99673  -1.200000  96.18629  14.11317  62.19375  14.82521  62.24050  13.90173  96.23304  13.18968
       2  79.26050  13.08396         20.08141  -1.200000  96.23304  13.18968  62.24050  13.90173  62.28818  12.97824  96.28073  12.26620
       2  79.30865  12.16048         20.16609  -1.200000  96.28073  12.26620  62.28818  12.97824  62.33681  12.05476  96.32935  11.34272
       2  79.35774  11.23700         20.25077  -1.200000  96.32935  11.34272  62.33681  12.05476  62.38636  11.13128  96.37891  10.41924
       2  79.40776  10.31351         20.33544  -1.200000  96.37891  10.41924  62.38636  11.13128  62.43685  10.20779  96.42940   9.49575
       2  79.45872   9.39003         20.42012  -1.200000  96.42940   9.49575  62.43685  10.20779  62.48828   9.28431  96.48083   8.57227
       2  79.51062   8.46655         20.50480  -1.200000  96.48083   8.57227  62.48828   9.28431  62.54065   8.36083  96.53319   7.64879
       2  79.56345   7.54306         20.58947  -1.200000  96.53319   7.64879  62.54065   8.36083  62.59394   7.43734  96.58649   6.72530
       2  79.61722   6.61958         20.67415  -1.200000  96.58649   6.72530  62.59394   7.43734  62.64818   6.51386  96.64072   5.80182
       2  79.67192   5.69610         20.75883  -1.200000  96.64072   5.80182  62.64818   6.51386  62.70335   5.59038  96.69589   4.87834
       2  79.72756   4.77261         20.84350  -1.200000  96.69589   4.87834  62.70335   5.59038  62.75945   4.66689  96.75200   3.95485
       2  79.78413   3.84913         20.92818  -1.200000  96.75200   3.95485  62.75945   4.66689  62.81650   3.74341  96.80904   3.03137
       2  79.84164   2.92565         21.01286  -1.200000  96.80904   3.03137  62.81650   3.74341  62.87447   2.81993  96.86701   2.10789
       2  79.90008   2.00217         21.09753  -1.200000  96.86701   2.10789  62.87447   2.81993  62.93338   1.89644  96.92593   1.18440
       2  79.95946   1.07868         21.18221  -1.200000  96.92593   1.18440  62.93338   1.89644  62.99323   0.97296  96.98577   0.26092
       2  80.01978   0.15520         21.26689  -1.200000  96.98577   0.26092  62.99323   0.97296  63.05402   0.04948  97.04656  -0.66256
       3  80.55938 127.85797         19.23464  -1.200000  97.59006 127.96369  63.59752 128.67573  63.52893 127.75225  97.52147 127.04021
       3  80.49126 126.93449         19.40400  -1.200000  97.52147 127.04021  63.52893 127.75225  63.46128 126.82876  97.45382 126.11672
       3  80.42408 126.01100         19.57335  -1.200000  97.45382 126.11672  63.46128 126.82876  63.39456 125.90528  97.38711 125.19324
       3  80.35783 125.08752         19.74270  -1.200000  97.38711 125.19324  63.39456 125.90528  63.32878 124.98180  97.32133 124.26976
       3  80.29251 124.16403         19.91206  -1.200000  97.32133 124.26976  63.32878 124.98180  63.26394 124.05831  97.25648 123.34627
       3  80.22814 123.24055         20.08141  -1.200000  97.25648 123.34627  63.26394 124.05831  63.20003 123.13483  97.19257 122.42279
       3  80.16470 122.31707         20.25077  -1.200000  97.19257 122.42279  63.20003 123.13483  63.13705 122.21135  97.12960 121.49930
       3  80.10219 121.39358         20.42012  -1.200000  97.12960 121.49930  63.13705 122.21135  63.07502 121.28786  97.06756 120.57582
       3  80.04062 120.47010         20.58947  -1.200000  97.06756 120.57582  63.07502 121.28786  63.01391 120.36438  97.00646 119.65234
       3  79.97998 119.54662         20.75883  -1.200000  97.00646 119.65234  63.01391 120.36438  62.95375 119.44090  96.94629 118.72885
       3  79.92028 118.62313         20.92818  -1.200000  96.94629 118.72885  62.95375 119.44090  62.89451 118.51741  96.88706 117.80537
       3  79.86152 117.69965         21.09753  -1.200000  96.88706 117.80537  62.89451 118.51741  62.83622 117.59393  96.82876 116.88189
       3  79.80369 116.77617         21.26689  -1.200000  96.82876 116.88189  62.83622 117.59393  62.77886 116.67045  96.77140 115.95840
       3  79.74680 115.85268         21.43624  -1.200000  96.77140 115.95840  62.77886 116.67045  62.72243 115.74696  96.71497 115.03492
       3  79.69084 114.92920         21.60560  -1.200000  96.71497 115.03492  62.72243 115.74696  62.66694 114.82348  96.65948 114.11144
       1  41.80451 126.13671         19.74270  -3.490825  58.78569 125.57949  24.84951 127.66169  24.82269 126.68208  58.76034 124.62385
       1  41.77860 125.16935         19.91206  -3.450345  58.76034 124.62385  24.82269 126.68208  24.79623 125.70297  58.73532 123.66873
       1  41.75303 124.20248         20.08141  -3.409850  58.73532 123.66873  24.79623 125.70297  24.77012 124.72436  58.71064 122.71411
       1  41.72781 123.23611         20.25077  -3.369340  58.71064 122.71411  24.77012 124.72436  24.74436 123.74624  58.68629 121.75999
       1  41.70292 122.27025         20.42012  -3.328815  58.68629 121.75999  24.74436 123.74624  24.71895 122.76863  58.66228 120.80639
       1  41.67838 121.30489         20.58947  -3.288274  58.66228 120.80639  24.71895 122.76863  24.69389 121.79150  58.63860 119.85328
       1  41.65419 120.34003         20.75883  -3.247719  58.63860 119.85328  24.69389 121.79150  24.66918 120.81488  58.61525 118.90069
       1  41.63033 119.37567         20.92818  -3.207148  58.61525 118.90069  24.66918 120.81488  24.64483 119.83875  58.59225 117.94860
       1  41.60682 118.41181         21.09753  -3.166563  58.59225 117.94860  24.64483 119.83875  24.62082 118.86312  58.56957 116.99702
       1  41.58366 117.44845         21.26689  -3.125963  58.56957 116.99702  24.62082 118.86312  24.59717 117.88798  58.54723 116.04595
       1  41.56083 116.48560         21.43624  -3.085348  58.54723 116.04595  24.59717 117.88798  24.57387 116.91334  58.52523 115.09538
       1  41.53835 115.52325         21.60560  -3.044718  58.52523 115.09538  24.57387 116.91334  24.55092 115.93920  58.50356 114.14532
       1  41.51621 114.56140         21.77495  -3.004073  58.50356 114.14532  24.55092 115.93920  24.52832 114.96555  58.48222 113.19576
       1  41.49442 113.60005         21.94430  -2.963414  58.48222 113.19576  24.52832 114.96555  24.50607 113.99240  58.46122 112.24671
       1  41.47296 112.63920         22.11366  -2.922740  58.46122 112.24671  24.50607 113.99240  24.48417 113.01975  58.44056 111.29817
       1  41.45185 111.67885         22.28301  -2.882052  58.44056 111.29817  24.48417 113.01975  24.46263 112.04760  58.42023 110.35013
       1  41.43109 110.71901         22.45236  -2.841349  58.42023 110.35013  24.46263 112.04760  24.44143 111.07594  58.40023 109.40260
       1  41.41066 109.75966         22.62172  -2.800632  58.40023 109.40260  24.44143 111.07594  24.42059 110.10478  58.38057 108.45558
       1  41.39058 108.80082         22.79107  -2.759900  58.38057 108.45558  24.42059 110.10478  24.40010 109.13411  58.36124 107.50906
       1  41.37085 107.84248         22.96043  -2.719154  58.36124 107.50906  24.40010 109.13411  24.37996 108.16395  58.34225 106.56305
       1  41.35145 106.88464         23.12978  -2.678394  58.34225 106.56305  24.37996 108.16395  24.36017 107.19427  58.32359 105.61755
       1  41.33240 105.92730         23.29913  -2.637620  58.32359 105.61755  24.36017 107.19427  24.34074 106.22510  58.30527 104.67255
       1  41.31369 104.97047         23.46849  -2.596831  58.30527 104.67255  24.34074 106.22510  24.32165 105.25642  58.28728 103.72805
       1  41.29533 104.01413         23.63784  -2.556028  58.28728 103.72805  24.32165 105.25642  24.30292 104.28824  58.26963 102.78407
       1  41.27730 103.05830         23.80719  -2.515212  58.26963 102.78407  24.30292 104.28824  24.28453 103.32056  58.25231 101.84059
       1  41.25962 102.10297         23.97655  -2.474381  58.25231 101.84059  24.28453 103.32056  24.26650 102.35338  58.23532 100.89761
       1  41.24229 101.14814         24.14590  -2.433537  58.23532 100.89761  24.26650 102.35338  24.24882 101.38669  58.21867  99.95514
       1  41.22530 100.19381         24.31526  -2.392678  58.21867  99.95514  24.24882 101.38669  24.23150 100.42050  58.20236  99.01318
       1  41.20865  99.23999         24.48461  -2.351806  58.20236  99.01318  24.23150 100.42050  24.21452  99.45480  58.18638  98.07172
       1  41.19234  98.28666         24.65396  -2.310920  58.18638  98.07172  24.21452  99.45480  24.19790  98.48961  58.17073  97.13077
       1  41.17637  97.33384         24.82332  -2.270020  58.17073  97.13077  24.19790  98.48961  24.18162  97.52491  58.15542  96.19033
       1  41.16075  96.38152         24.99267  -2.229107  58.15542  96.19033  24.18162  97.52491  24.16570  96.56070  58.14044  95.25039
       1  41.14548  95.42970         25.16202  -2.188180  58.14044  95.25039  24.16570  96.56070  24.15013  95.59700  58.12580  94.31096
       1  41.13054  94.47838         25.33138  -2.147240  58.12580  94.31096  24.15013  95.59700  24.13491  94.63379  58.11149  93.37203
       1  41.11595  93.52756         25.50073  -2.106286  58.11149  93.37203  24.13491  94.63379  24.12004  93.67108  58.09752  92.43361
       1  41.10170  92.57725         25.67009  -2.065319  58.09752  92.43361  24.12004  93.67108  24.10553  92.70886  58.08388  91.49569
       1  41.08779  91.62744         25.83944  -2.024338  58.08388  91.49569  24.10553  92.70886  24.09137  91.74715  58.07057  90.55829
       1  41.07423  90.67812         26.00879  -1.983344  58.07057  90.55829  24.09137  91.74715  24.07755  90.78593  58.05760  89.62138
       1  41.06101  89.72931         26.17815  -1.942337  58.05760  89.62138  24.07755  90.78593  24.06409  89.82521  58.04497  88.68498
       1  41.04813  88.78100         26.34750  -1.901316  58.04497  88.68498  24.06409  89.82521  24.05098  88.86498  58.03267  87.74909
       1  41.03560  87.83320         26.51685  -1.860283  58.03267  87.74909  24.05098  88.86498  24.03823  87.90525  58.02070  86.81371
       1  41.02341  86.88589         26.68621  -1.819236  58.02070  86.81371  24.03823  87.90525  24.02582  86.94603  58.00907  85.87883
       1  41.01156  85.93909         26.85556  -1.778176  58.00907  85.87883  24.02582  86.94603  24.01377  85.98729  57.99777  84.94445
       1  41.00006  84.99278         27.02492  -1.737104  57.99777  84.94445  24.01377  85.98729  24.00206  85.02906  57.98681  84.01058
       1  40.98890  84.04698         27.19427  -1.696018  57.98681  84.01058  24.00206  85.02906  23.99071  84.07132  57.97618  83.07722
       1  40.97808  83.10168         27.36362  -1.654919  57.97618  83.07722  23.99071  84.07132  23.97971  83.11408  57.96588  82.14436
       1  40.96760  82.15688         27.53298  -1.613808  57.96588  82.14436  23.97971  83.11408  23.96907  82.15734  57.95592  81.21201
       1  40.95747  81.21259         27.70233  -1.572684  57.95592  81.21201  23.96907  82.15734  23.95877  81.20109  57.94629  80.28016
       1  40.94768  80.26879         27.87168  -1.531547  57.94629  80.28016  23.95877  81.20109  23.94883  80.24535  57.93700  79.34882
       1  40.93823  79.32550         28.04104  -1.490398  57.93700  79.34882  23.94883  80.24535  23.93923  79.29010  57.92805  78.41799
       1  40.92913  78.38271         28.21039  -1.449236  57.92805  78.41799  23.93923  79.29010  23.92999  78.33535  57.91942  77.48766
       1  40.92037  77.44042         28.37975  -1.408061  57.91942  77.48766  23.92999  78.33535  23.92110  77.38109  57.91113  76.55783
       1  40.91195  76.49863         28.54910  -1.366874  57.91113  76.55783  23.92110  77.38109  23.91257  76.42733  57.90318  75.62851
       1  40.90388  75.55734         28.71845  -1.325675  57.90318  75.62851  23.91257  76.42733  23.90438  75.47408  57.89556  74.69970
       1  40.89615  74.61656         28.88781  -1.284463  57.89556  74.69970  23.90438  75.47408  23.89655  74.52131  57.88827  73.77139
       1  40.88876  73.67627         29.05716  -1.243239  57.88827  73.77139  23.89655  74.52131  23.88906  73.56905  57.88132  72.84359
       1  40.88171  72.73649         29.22651  -1.202003  57.88132  72.84359  23.88906  73.56905  23.88193  72.61729  57.87471  71.91629
       1  40.87501  71.79721         29.39587  -1.160754  57.87471  71.91629  23.88193  72.61729  23.87516  71.66602  57.86842  70.98950
       1  40.86865  70.85843         29.56522  -1.119493  57.86842  70.98950  23.87516  71.66602  23.86873  70.71525  57.86248  70.06321
       1  40.86264  69.92015         29.73458  -1.078220  57.86248  70.06321  23.86873  70.71525  23.86265  69.76497  57.85686  69.13743
       1  40.85696  68.98238         29.90393  -1.036936  57.85686  69.13743  23.86265  69.76497  23.85693  68.81520  57.85158  68.21215
       1  40.85163  68.04510         30.07328  -0.995639  57.85158  68.21215  23.85693  68.81520  23.85156  67.86592  57.84664  67.28738
       1  40.84665  67.10833         30.24264  -0.954330  57.84664  67.28738  23.85156  67.86592  23.84654  66.91714  57.84202  66.36312
       1  40.84200  66.17206         30.41199  -0.913009  57.84202  66.36312  23.84654  66.91714  23.84187  65.96886  57.83775  65.43936
       1  40.83770  65.23629         30.58134  -0.871677  57.83775  65.43936  23.84187  65.96886  23.83756  65.02108  57.83380  64.51610
       1  40.83374  64.30102         30.75070  -0.830332  57.83380  64.51610  23.83756  65.02108  23.83359  64.07380  57.83020  63.59335
       1  40.83013  63.36625         30.92005  -0.788976  57.83020  63.59335  23.83359  64.07380  23.82998  63.12701  57.82692  62.67111
       1  40.82686  62.43199         31.08941  -0.747609  57.82692  62.67111  23.82998  63.12701  23.82672  62.18072  57.82398  61.74937
       1  40.82393  61.49822         31.25876  -0.706229  57.82398  61.74937  23.82672  62.18072  23.82381  61.23493  57.82138  60.82813
       1  40.82134  60.56496         31.42811  -0.664839  57.82138  60.82813  23.82381  61.23493  23.82125  60.28964  57.81910  59.90740
       1  40.81910  59.63220         31.59747  -0.623436  57.81910  59.90740  23.82125  60.28964  23.81905  59.34484  57.81717  58.98718
       1  40.81720  58.69994         31.76682  -0.582023  57.81717  58.98718  23.81905  59.34484  23.81719  58.40054  57.81556  58.06746
       1  40.81564  57.76819         31.93617  -0.540597  57.81556  58.06746  23.81719  58.40054  23.81569  57.45675  57.81429  57.14825
       1  40.81443  56.83693         32.10553  -0.499161  57.81429  57.14825  23.81569  57.45675  23.81454  56.51344  57.81336  56.22954
       1  40.81356  55.90618         32.27488  -0.457713  57.81336  56.22954  23.81454  56.51344  23.81375  55.57064  57.81276  55.31133
       1  40.81303  54.97592         32.44424  -0.416254  57.81276  55.31133  23.81375  55.57064  23.81330  54.62834  57.81249  54.39363
       1  40.81285  54.04617         32.61359  -0.374784  57.81249  54.39363  23.81330  54.62834  23.81321  53.68653  57.81256  53.47644
       1  40.81301  53.11692         32.78294  -0.333303  57.81256  53.47644  23.81321  53.68653  23.81347  52.74522  57.81296  52.55975
       1  40.81351  52.18818         32.95230  -0.291810  57.81296  52.55975  23.81347  52.74522  23.81408  51.80441  57.81370  51.64356
       1  40.81435  51.25993         33.12165  -0.250307  57.81370  51.64356  23.81408  51.80441  23.81504  50.86410  57.81477  50.72788
       1  40.81554  50.33218         33.29100  -0.208793  57.81477  50.72788  23.81504  50.86410  23.81635  49.92429  57.81617  49.81271
       1  40.81707  49.40494         33.46036  -0.167268  57.81617  49.81271  23.81635  49.92429  23.81802  48.98498  57.81791  48.89804
       1  40.81894  48.47820         33.62971  -0.125732  57.81791  48.89804  23.81802  48.98498  23.82004  48.04616  57.81998  47.98387
       1  40.82116  47.55196         33.79907  -0.084185  57.81998  47.98387  23.82004  48.04616  23.82241  47.10784  57.82239  47.07021
       1  40.82372  46.62622         33.96842  -0.042627  57.82239  47.07021  23.82241  47.10784  23.82513  46.17002  57.82513  46.15706
       1  40.82662  45.70098         34.13777  -0.001059  57.82513  46.15706  23.82513  46.17002  23.82820  45.23270  57.82820  45.24441
       1  40.82987  44.77625         34.30713   0.040520  57.82820  45.24441  23.82820  45.23270  23.83163  44.29588  57.83161  44.33226
       1  40.83346  43.85201         34.47648   0.082109  57.83161  44.33226  23.83163  44.29588  23.83541  43.35955  57.83535  43.42062
       1  40.83739  42.92828         34.64583   0.123709  57.83535  43.42062  23.83541  43.35955  23.83954  42.42373  57.83943  42.50948
       1  40.84166  42.00505         34.81519   0.165320  57.83943  42.50948  23.83954  42.42373  23.84402  41.48840  57.84384  41.59885
       1  40.84628  41.08232         34.98454   0.206941  57.84384  41.59885  23.84402  41.48840  23.84885  40.55357  57.84858  40.68872
       1  40.85124  40.16010         35.15390   0.248572  57.84858  40.68872  23.84885  40.55357  23.85404  39.61924  57.85366  39.77910
       1  40.85655  39.23837         35.32325   0.290214  57.85366  39.77910  23.85404  39.61924  23.85958  38.68541  57.85908  38.86998
       1  40.86219  38.31714         35.49260   0.331865  57.85908  38.86998  23.85958  38.68541  23.86547  37.75207  57.86482  37.96137
       1  40.86818  37.39642         35.66196   0.373527  57.86482  37.96137  23.86547  37.75207  23.87171  36.81924  57.87090  37.05326
       1  40.87452  36.47620         35.83131   0.415200  57.87090  37.05326  23.87171  36.81924  23.87830  35.88690  57.87732  36.14565
       1  40.88119  35.55648         36.00066   0.456882  57.87732  36.14565  23.87830  35.88690  23.88525  34.95507  57.88407  35.23855
       1  40.88821  34.63726         36.17002   0.498574  57.88407  35.23855  23.88525  34.95507  23.89255  34.02373  57.89115  34.33196
       1  40.89557  33.71855         36.33937   0.540276  57.89115  34.33196  23.89255  34.02373  23.90020  33.09289  57.89857  33.42586
       1  40.90328  32.80033         36.50873   0.581988  57.89857  33.42586  23.90020  33.09289  23.90820  32.16255  57.90632  32.52028
       1  40.91133  31.88262         36.67808   0.623711  57.90632  32.52028  23.90820  32.16255  23.91656  31.23270  57.91440  31.61519
       1  40.91972  30.96541         36.84743   0.665442  57.91440  31.61519  23.91656  31.23270  23.92526  30.30336  57.92282  30.71062
       1  40.92845  30.04870         37.01679   0.707184  57.92282  30.71062  23.92526  30.30336  23.93432  29.37452  57.93158  29.80654
       1  40.93753  29.13249         37.18614   0.748935  57.93158  29.80654  23.93432  29.37452  23.94373  28.44617  57.94066  28.90297
       1  40.94695  28.21678         37.35549   0.790696  57.94066  28.90297  23.94373  28.44617  23.95350  27.51832  57.95008  27.99991
       1  40.95671  27.30157         37.52485   0.832467  57.95008  27.99991  23.95350  27.51832  23.96361  26.59097  57.95984  27.09735
       1  40.96682  26.38687         37.69420   0.874247  57.95984  27.09735  23.96361  26.59097  23.97408  25.66412  57.96993  26.19529
       1  40.97727  25.47267         37.86356   0.916037  57.96993  26.19529  23.97408  25.66412  23.98490  24.73777  57.98035  25.29374
       1  40.98806  24.55897         38.03291   0.957836  57.98035  25.29374  23.98490  24.73777  23.99607  23.81192  57.99111  24.39269
       1  40.99920  23.64577         38.20226   0.999645  57.99111  24.39269  23.99607  23.81192  24.00759  22.88657  58.00220  23.49214
       1  41.01068  22.73307         38.37162   1.041463  58.00220  23.49214  24.00759  22.88657  24.01947  21.96171  58.01362  22.59210
       1  41.02250  21.82087         38.54097   1.083290  58.01362  22.59210  24.01947  21.96171  24.03169  21.03736  58.02538  21.69257
       1  41.03466  20.90918         38.71032   1.125126  58.02538  21.69257  24.03169  21.03736  24.04427  20.11350  58.03747  20.79354
       1  41.04717  19.99799         38.87968   1.166972  58.03747  20.79354  24.04427  20.11350  24.05721  19.19015  58.04990  19.89501
       1  41.06002  19.08729         39.04903   1.208827  58.04990  19.89501  24.05721  19.19015  24.07049  18.26729  58.06266  18.99698
       1  41.07321  18.17710         39.21839   1.250690  58.06266  18.99698  24.07049  18.26729  24.08413  17.34493  58.07575  18.09947
       1  41.08675  17.26742         39.38774   1.292563  58.07575  18.09947  24.08413  17.34493  24.09812  16.42307  58.08918  17.20245
       1  41.10063  16.35823         39.55709   1.334445  58.08918  17.20245  24.09812  16.42307  24.11246  15.50171  58.10294  16.30594
       1  41.11485  15.44954         39.72645   1.376336  58.10294  16.30594  24.11246  15.50171  24.12715  14.58085  58.11704  15.40993
       1  41.12942  14.54136         39.89580   1.418235  58.11704  15.40993  24.12715  14.58085  24.14219  13.66049  58.13147  14.51443
       1  41.14433  13.63368         40.06515   1.460144  58.13147  14.51443  24.14219  13.66049  24.15759  12.74062  58.14623  13.61943
       1  41.15958  12.72650         40.23451   1.502061  58.14623  13.61943  24.15759  12.74062  24.17334  11.82126  58.16133  12.72493
       1  41.17518  11.81982         40.40386   1.543987  58.16133  12.72493  24.17334  11.82126  24.18944  10.90239  58.17676  11.83094
       1  41.19111  10.91364         40.57322   1.585921  58.17676  11.83094  24.18944  10.90239  24.20590   9.98403  58.19253  10.93745
       1  41.20739  10.00797         40.74257   1.627865  58.19253  10.93745  24.20590   9.98403  24.22270   9.06616  58.20862  10.04447
       1  41.22402   9.10279         40.91192   1.669816  58.20862  10.04447  24.22270   9.06616  24.23986   8.14880  58.22506   9.15199
       1  41.24099   8.19812         41.08128   1.711776  58.22506   9.15199  24.23986   8.14880  24.25737   7.23193  58.24182   8.26001
       1  41.25830   7.29395         41.25063   1.753745  58.24182   8.26001  24.25737   7.23193  24.27523   6.31556  58.25892   7.36854
       1  41.27595   6.39028         41.41998   1.795722  58.25892   7.36854  24.27523   6.31556  24.29345   5.39969  58.27636   6.47757
       1  41.29395   5.48711         41.58934   1.837707  58.27636   6.47757  24.29345   5.39969  24.31202   4.48432  58.29413   5.58710
       1  41.31228   4.58444         41.75869   1.879701  58.29413   5.58710  24.31202   4.48432  24.33094   3.56945  58.31223   4.69714
       1  41.33097   3.68228         41.92805   1.921703  58.31223   4.69714  24.33094   3.56945  24.35021   2.65508  58.33066   3.80769
       1  41.34999   2.78061         42.09740   1.963713  58.33066   3.80769  24.35021   2.65508  24.36983   1.74121  58.34943   2.91873
       1  41.36936   1.87945         42.26675   2.005731  58.34943   2.91873  24.36983   1.74121  24.38981   0.82784  58.36854   2.03028
