\wavsamp version 5.1 (Wed Apr 20 08:45:04 PDT 2005)
\processing time 11:46:23 PST 01/03/2007
\character channelID = 1
| order |x_center |y_center |   wavelength   |  angle   |   x0    |   y0    |   x1    |   y1    |   x2    |   y2    |   x3    |   y3    |
| int   |  real   |  real   |    real        |   real   |  real   |  real   |  real   |  real   |  real   |  real   |  real   |  real   |
      20 120.45426 128.33631          9.86350   6.481150 123.23890 129.12588 117.64985 128.49095 117.66961 127.54673 123.25866 128.18166
      20 120.47402 127.39171          9.87109   6.481150 123.25866 128.18166 117.66961 127.54673 117.68938 126.60175 123.27843 127.23668
      20 120.49380 126.44635          9.87869   6.481150 123.27843 127.23668 117.68938 126.60175 117.70917 125.65601 123.29822 126.29094
      20 120.51360 125.50023          9.88629   6.481150 123.29822 126.29094 117.70917 125.65601 117.72898 124.70951 123.31803 125.34444
      20 120.53341 124.55334          9.89390   6.481150 123.31803 125.34444 117.72898 124.70951 117.74880 123.76224 123.33785 124.39717
      20 120.55324 123.60570          9.90151   6.481150 123.33785 124.39717 117.74880 123.76224 117.76863 122.81421 123.35768 123.44914
      20 120.57308 122.65729          9.90913   6.481150 123.35768 123.44914 117.76863 122.81421 117.78848 121.86542 123.37753 122.50035
      20 120.59294 121.70811          9.91675   6.481150 123.37753 122.50035 117.78848 121.86542 117.80835 120.91587 123.39740 121.55080
      20 120.61281 120.75818          9.92439   6.481150 123.39740 121.55080 117.80835 120.91587 117.82823 119.96555 123.41728 120.60048
      20 120.63270 119.80748          9.93202   6.481150 123.41728 120.60048 117.82823 119.96555 117.84812 119.01447 123.43717 119.64939
      20 120.65260 118.85601          9.93967   6.481150 123.43717 119.64939 117.84812 119.01447 117.86803 118.06262 123.45708 118.69755
      20 120.67252 117.90378          9.94731   6.481150 123.45708 118.69755 117.86803 118.06262 117.88796 117.11000 123.47701 117.74493
      20 120.69245 116.95078          9.95497   6.481150 123.47701 117.74493 117.88796 117.11000 117.90790 116.15662 123.49695 116.79155
      20 120.71240 115.99701          9.96263   6.481150 123.49695 116.79155 117.90790 116.15662 117.92786 115.20247 123.51691 115.83740
      20 120.73237 115.04248          9.97030   6.481150 123.51691 115.83740 117.92786 115.20247 117.94783 114.24755 123.53688 114.88248
      20 120.75235 114.08717          9.97797   6.481150 123.53688 114.88248 117.94783 114.24755 117.96782 113.29186 123.55687 113.92679
      20 120.77234 113.13110          9.98565   6.481150 123.55687 113.92679 117.96782 113.29186 117.98782 112.33540 123.57687 112.97033
      20 120.79236 112.17426          9.99333   6.481150 123.57687 112.97033 117.98782 112.33540 118.00784 111.37818 123.59689 112.01311
      20 120.81238 111.21665         10.00102   6.481150 123.59689 112.01311 118.00784 111.37818 118.02787 110.42018 123.61692 111.05511
      20 120.83242 110.25826         10.00872   6.481150 123.61692 111.05511 118.02787 110.42018 118.04792 109.46141 123.63697 110.09634
      20 120.85248 109.29911         10.01642   6.481150 123.63697 110.09634 118.04792 109.46141 118.06799 108.50187 123.65704 109.13680
      20 120.87255 108.33918         10.02413   6.481150 123.65704 109.13680 118.06799 108.50187 118.08807 107.54156 123.67712 108.17649
      20 120.89264 107.37848         10.03184   6.481150 123.67712 108.17649 118.08807 107.54156 118.10816 106.58047 123.69721 107.21540
      20 120.91274 106.41701         10.03956   6.481150 123.69721 107.21540 118.10816 106.58047 118.12827 105.61861 123.71732 106.25354
      20 120.93286 105.45476         10.04729   6.481150 123.71732 106.25354 118.12827 105.61861 118.14840 104.65597 123.73745 105.29090
      20 120.95300 104.49173         10.05502   6.481150 123.73745 105.29090 118.14840 104.65597 118.16854 103.69256 123.75759 104.32749
      20 120.97315 103.52794         10.06276   6.481150 123.75759 104.32749 118.16854 103.69256 118.18870 102.72837 123.77775 103.36330
      20 120.99331 102.56336         10.07050   6.481150 123.77775 103.36330 118.18870 102.72837 118.20887 101.76341 123.79792 102.39834
      20 121.01349 101.59801         10.07825   6.481150 123.79792 102.39834 118.20887 101.76341 118.22906 100.79767 123.81811 101.43260
      20 121.03369 100.63188         10.08600   6.481150 123.81811 101.43260 118.22906 100.79767 118.24927  99.83115 123.83832 100.46608
      20 121.05390  99.66497         10.09377   6.481150 123.83832 100.46608 118.24927  99.83115 118.26949  98.86385 123.85854  99.49878
      20 121.07413  98.69728         10.10153   6.481150 123.85854  99.49878 118.26949  98.86385 118.28972  97.89577 123.87877  98.53070
      20 121.09437  97.72881         10.10931   6.481150 123.87877  98.53070 118.28972  97.89577 118.30997  96.92692 123.89902  97.56185
      20 121.11463  96.75957         10.11709   6.481150 123.89902  97.56185 118.30997  96.92692 118.33024  95.95728 123.91929  96.59221
      20 121.13490  95.78954         10.12487   6.481150 123.91929  96.59221 118.33024  95.95728 118.35052  94.98686 123.93957  95.62179
      20 121.15519  94.81873         10.13266   6.481150 123.93957  95.62179 118.35052  94.98686 118.37082  94.01566 123.95987  94.65059
      20 121.17550  93.84714         10.14046   6.481150 123.95987  94.65059 118.37082  94.01566 118.39113  93.04368 123.98018  93.67861
      20 121.19582  92.87476         10.14826   6.481150 123.98018  93.67861 118.39113  93.04368 118.41146  92.07091 124.00051  92.70584
      20 121.21616  91.90161         10.15607   6.481150 124.00051  92.70584 118.41146  92.07091 118.43180  91.09736 124.02086  91.73229
      20 121.23651  90.92766         10.16389   6.481150 124.02086  91.73229 118.43180  91.09736 118.45216  90.12303 124.04122  90.75796
      20 121.25688  89.95294         10.17171   6.481150 124.04122  90.75796 118.45216  90.12303 118.47254  89.14791 124.06159  89.78284
      20 121.27726  88.97742         10.17954   6.481150 124.06159  89.78284 118.47254  89.14791 118.49293  88.17200 124.08198  88.80693
      20 121.29766  88.00113         10.18737   6.481150 124.08198  88.80693 118.49293  88.17200 118.51334  87.19531 124.10239  87.83024
      20 121.31808  87.02404         10.19521   6.481150 124.10239  87.83024 118.51334  87.19531 118.53376  86.21783 124.12281  86.85276
      20 121.33851  86.04617         10.20306   6.481150 124.12281  86.85276 118.53376  86.21783 118.55420  85.23956 124.14325  85.87449
      20 121.35895  85.06751         10.21091   6.481150 124.14325  85.87449 118.55420  85.23956 118.57465  84.26051 124.16371  84.89544
      20 121.37942  84.08806         10.21876   6.481150 124.16371  84.89544 118.57465  84.26051 118.59512  83.28067 124.18418  83.91559
      20 121.39989  83.10782         10.22663   6.481150 124.18418  83.91559 118.59512  83.28067 118.61561  82.30003 124.20466  82.93496
      20 121.42039  82.12679         10.23450   6.481150 124.20466  82.93496 118.61561  82.30003 118.63611  81.31861 124.22516  81.95354
      20 121.44090  81.14497         10.24237   6.481150 124.22516  81.95354 118.63611  81.31861 118.65663  80.33639 124.24568  80.97132
      20 121.46142  80.16236         10.25026   6.481150 124.24568  80.97132 118.65663  80.33639 118.67716  79.35338 124.26621  79.98831
      20 121.48196  79.17895         10.25814   6.481150 124.26621  79.98831 118.67716  79.35338 118.69771  78.36959 124.28676  79.00451
      20 121.50252  78.19476         10.26604   6.481150 124.28676  79.00451 118.69771  78.36959 118.71828  77.38499 124.30733  78.01992
      20 121.52309  77.20977         10.27394   6.481150 124.30733  78.01992 118.71828  77.38499 118.73886  76.39961 124.32791  77.03454
      20 121.54368  76.22398         10.28184   6.481150 124.32791  77.03454 118.73886  76.39961 118.75945  75.41343 124.34850  76.04835
      20 121.56429  75.23741         10.28976   6.481150 124.34850  76.04835 118.75945  75.41343 118.78007  74.42645 124.36912  75.06138
      20 121.58491  74.25003         10.29767   6.481150 124.36912  75.06138 118.78007  74.42645 118.80069  73.43868 124.38975  74.07361
      20 121.60554  73.26186         10.30560   6.481150 124.38975  74.07361 118.80069  73.43868 118.82134  72.45011 124.41039  73.08504
      20 121.62619  72.27290         10.31353   6.481150 124.41039  73.08504 118.82134  72.45011 118.84200  71.46074 124.43105  72.09567
      20 121.64686  71.28313         10.32146   6.481150 124.43105  72.09567 118.84200  71.46074 118.86267  70.47058 124.45172  71.10551
      20 121.66755  70.29257         10.32941   6.481150 124.45172  71.10551 118.86267  70.47058 118.88337  69.47962 124.47242  70.11455
      20 121.68824  69.30121         10.33736   6.481150 124.47242  70.11455 118.88337  69.47962 118.90407  68.48786 124.49312  69.12279
      20 121.70896  68.30905         10.34531   6.481150 124.49312  69.12279 118.90407  68.48786 118.92480  67.49530 124.51385  68.13023
      20 121.72969  67.31609         10.35327   6.481150 124.51385  68.13023 118.92480  67.49530 118.94554  66.50194 124.53459  67.13687
      20 121.75044  66.32233         10.36124   6.481150 124.53459  67.13687 118.94554  66.50194 118.96629  65.50778 124.55534  66.14271
      20 121.77120  65.32777         10.36921   6.481150 124.55534  66.14271 118.96629  65.50778 118.98706  64.51281 124.57611  65.14774
      20 121.79198  64.33240         10.37719   6.481150 124.57611  65.14774 118.98706  64.51281 119.00785  63.51705 124.59690  64.15198
      20 121.81278  63.33623         10.38518   6.481150 124.59690  64.15198 119.00785  63.51705 119.02865  62.52048 124.61771  63.15541
      20 121.83359  62.33926         10.39317   6.481150 124.61771  63.15541 119.02865  62.52048 119.04947  61.52311 124.63852  62.15804
      20 121.85442  61.34149         10.40117   6.481150 124.63852  62.15804 119.04947  61.52311 119.07031  60.52493 124.65936  61.15986
      20 121.87526  60.34291         10.40917   6.481150 124.65936  61.15986 119.07031  60.52493 119.09116  59.52595 124.68021  60.16088
      20 121.89612  59.34352         10.41718   6.481150 124.68021  60.16088 119.09116  59.52595 119.11203  58.52616 124.70108  59.16109
      20 121.91700  58.34333         10.42520   6.481150 124.70108  59.16109 119.11203  58.52616 119.13291  57.52556 124.72196  58.16049
      20 121.93789  57.34233         10.43322   6.481150 124.72196  58.16049 119.13291  57.52556 119.15381  56.52416 124.74286  57.15909
      20 121.95879  56.34053         10.44125   6.481150 124.74286  57.15909 119.15381  56.52416 119.17473  55.52195 124.76378  56.15688
      20 121.97972  55.33791         10.44928   6.481150 124.76378  56.15688 119.17473  55.52195 119.19566  54.51893 124.78471  55.15386
      20 122.00066  54.33449         10.45732   6.481150 124.78471  55.15386 119.19566  54.51893 119.21661  53.51511 124.80566  54.15004
      20 122.02161  53.33026         10.46537   6.481150 124.80566  54.15004 119.21661  53.51511 119.23757  52.51047 124.82662  53.14540
      20 122.04259  52.32522         10.47342   6.481150 124.82662  53.14540 119.23757  52.51047 119.25855  51.50502 124.84760  52.13995
      20 122.06358  51.31936         10.48148   6.481150 124.84760  52.13995 119.25855  51.50502 119.27955  50.49876 124.86860  51.13369
      20 122.08458  50.31270         10.48955   6.481150 124.86860  51.13369 119.27955  50.49876 119.30056  49.49169 124.88961  50.12662
      20 122.10560  49.30522         10.49762   6.481150 124.88961  50.12662 119.30056  49.49169 119.32159  48.48381 124.91064  49.11874
      20 122.12664  48.29693         10.50570   6.481150 124.91064  49.11874 119.32159  48.48381 119.34263  47.47511 124.93168  48.11004
      20 122.14769  47.28782         10.51378   6.481150 124.93168  48.11004 119.34263  47.47511 119.36370  46.46560 124.95275  47.10053
      20 122.16876  46.27791         10.52188   6.481150 124.95275  47.10053 119.36370  46.46560 119.38477  45.45527 124.97382  46.09020
      20 122.18984  45.26717         10.52997   6.481150 124.97382  46.09020 119.38477  45.45527 119.40587  44.44413 124.99492  45.07906
      20 122.21095  44.25562         10.53808   6.481150 124.99492  45.07906 119.40587  44.44413 119.42698  43.43218 125.01603  44.06710
      20 122.23206  43.24326         10.54618   6.481150 125.01603  44.06710 119.42698  43.43218 119.44810  42.41940 125.03715  43.05433
      20 122.25320  42.23008         10.55430   6.481150 125.03715  43.05433 119.44810  42.41940 119.46924  41.40581 125.05829  42.04074
      20 122.27435  41.21607         10.56242   6.481150 125.05829  42.04074 119.46924  41.40581 119.49040  40.39140 125.07945  41.02633
      20 122.29552  40.20126         10.57055   6.481150 125.07945  41.02633 119.49040  40.39140 119.51158  39.37617 125.10063  40.01110
      20 122.31670  39.18562         10.57868   6.481150 125.10063  40.01110 119.51158  39.37617 119.53277  38.36012 125.12182  38.99505
      20 122.33790  38.16916         10.58683   6.481150 125.12182  38.99505 119.53277  38.36012 119.55398  37.34326 125.14303  37.97819
      20 122.35911  37.15188         10.59497   6.481150 125.14303  37.97819 119.55398  37.34326 119.57520  36.32557 125.16425  36.96050
      20 122.38034  36.13378         10.60313   6.481150 125.16425  36.96050 119.57520  36.32557 119.59644  35.30706 125.18549  35.94199
      20 122.40159  35.11486         10.61128   6.481150 125.18549  35.94199 119.59644  35.30706 119.61770  34.28773 125.20675  34.92265
      20 122.42286  34.09512         10.61945   6.481150 125.20675  34.92265 119.61770  34.28773 119.63897  33.26757 125.22802  33.90250
      20 122.44414  33.07455         10.62762   6.481150 125.22802  33.90250 119.63897  33.26757 119.66026  32.24659 125.24931  32.88152
      20 122.46544  32.05316         10.63580   6.481150 125.24931  32.88152 119.66026  32.24659 119.68156  31.22479 125.27061  31.85972
      20 122.48675  31.03094         10.64398   6.481150 125.27061  31.85972 119.68156  31.22479 119.70288  30.20216 125.29194  30.83709
      20 122.50808  30.00790         10.65218   6.481150 125.29194  30.83709 119.70288  30.20216 119.72422  29.17870 125.31327  29.81363
      20 122.52943  28.98403         10.66037   6.481150 125.31327  29.81363 119.72422  29.17870 119.74558  28.15442 125.33463  28.78935
      20 122.55079  27.95934         10.66858   6.481150 125.33463  28.78935 119.74558  28.15442 119.76695  27.12932 125.35600  27.76425
      20 122.57217  26.93382         10.67679   6.481150 125.35600  27.76425 119.76695  27.12932 119.78834  26.10338 125.37739  26.73831
      20 122.59356  25.90747         10.68500   6.481150 125.37739  26.73831 119.78834  26.10338 119.80974  25.07662 125.39879  25.71155
      20 122.61498  24.88029         10.69322   6.481150 125.39879  25.71155 119.80974  25.07662 119.83116  24.04902 125.42021  24.68395
      20 122.63641  23.85228         10.70145   6.481150 125.42021  24.68395 119.83116  24.04902 119.85260  23.02060 125.44165  23.65553
      19 113.49966 128.18901         10.37719   6.669800 116.28591 128.98791 110.69898 128.33458 110.71341 127.39011 116.30034 128.04344
      19 113.51409 127.24417         10.38518   6.669800 116.30034 128.04344 110.71341 127.39011 110.72784 126.44489 116.31477 127.09822
      19 113.52853 126.29857         10.39317   6.669800 116.31477 127.09822 110.72784 126.44489 110.74229 125.49890 116.32922 126.15223
      19 113.54299 125.35220         10.40117   6.669800 116.32922 126.15223 110.74229 125.49890 110.75675 124.55215 116.34368 125.20548
      19 113.55745 124.40507         10.40917   6.669800 116.34368 125.20548 110.75675 124.55215 110.77122 123.60464 116.35815 124.25797
      19 113.57193 123.45717         10.41718   6.669800 116.35815 124.25797 110.77122 123.60464 110.78570 122.65637 116.37263 123.30969
      19 113.58642 122.50851         10.42520   6.669800 116.37263 123.30969 110.78570 122.65637 110.80020 121.70732 116.38713 122.36065
      19 113.60091 121.55909         10.43322   6.669800 116.38713 122.36065 110.80020 121.70732 110.81470 120.75752 116.40163 121.41085
      19 113.61542 120.60890         10.44125   6.669800 116.40163 121.41085 110.81470 120.75752 110.82922 119.80695 116.41615 120.46027
      19 113.62994 119.65795         10.44928   6.669800 116.41615 120.46027 110.82922 119.80695 110.84374 118.85561 116.43067 119.50894
      19 113.64448 118.70622         10.45732   6.669800 116.43067 119.50894 110.84374 118.85561 110.85828 117.90350 116.44521 118.55683
      19 113.65902 117.75373         10.46537   6.669800 116.44521 118.55683 110.85828 117.90350 110.87283 116.95063 116.45976 117.60396
      19 113.67357 116.80047         10.47342   6.669800 116.45976 117.60396 110.87283 116.95063 110.88739 115.99699 116.47432 116.65031
      19 113.68814 115.84645         10.48148   6.669800 116.47432 116.65031 110.88739 115.99699 110.90196 115.04257 116.48889 115.69590
      19 113.70272 114.89165         10.48955   6.669800 116.48889 115.69590 110.90196 115.04257 110.91654 114.08739 116.50347 114.74072
      19 113.71730 113.93608         10.49762   6.669800 116.50347 114.74072 110.91654 114.08739 110.93114 113.13144 116.51807 113.78477
      19 113.73190 112.97975         10.50570   6.669800 116.51807 113.78477 110.93114 113.13144 110.94574 112.17472 116.53267 112.82805
      19 113.74651 112.02264         10.51378   6.669800 116.53267 112.82805 110.94574 112.17472 110.96036 111.21722 116.54729 111.87055
      19 113.76113 111.06476         10.52188   6.669800 116.54729 111.87055 110.96036 111.21722 110.97498 110.25896 116.56191 110.91228
      19 113.77577 110.10610         10.52997   6.669800 116.56191 110.91228 110.97498 110.25896 110.98962 109.29992 116.57655 109.95324
      19 113.79041 109.14668         10.53808   6.669800 116.57655 109.95324 110.98962 109.29992 111.00427 108.34010 116.59120 108.99343
      19 113.80507 108.18648         10.54618   6.669800 116.59120 108.99343 111.00427 108.34010 111.01893 107.37951 116.60586 108.03284
      19 113.81973 107.22550         10.55430   6.669800 116.60586 108.03284 111.01893 107.37951 111.03360 106.41815 116.62053 107.07148
      19 113.83441 106.26375         10.56242   6.669800 116.62053 107.07148 111.03360 106.41815 111.04829 105.45601 116.63522 106.10934
      19 113.84910 105.30122         10.57055   6.669800 116.63522 106.10934 111.04829 105.45601 111.06298 104.49310 116.64991 105.14643
      19 113.86380 104.33792         10.57868   6.669800 116.64991 105.14643 111.06298 104.49310 111.07769 103.52941 116.66462 104.18274
      19 113.87851 103.37384         10.58683   6.669800 116.66462 104.18274 111.07769 103.52941 111.09241 102.56494 116.67934 103.21827
      19 113.89324 102.40898         10.59497   6.669800 116.67934 103.21827 111.09241 102.56494 111.10714 101.59969 116.69407 102.25302
      19 113.90797 101.44335         10.60313   6.669800 116.69407 102.25302 111.10714 101.59969 111.12188 100.63366 116.70881 101.28699
      19 113.92272 100.47693         10.61128   6.669800 116.70881 101.28699 111.12188 100.63366 111.13663  99.66686 116.72356 100.32019
      19 113.93747  99.50973         10.61945   6.669800 116.72356 100.32019 111.13663  99.66686 111.15139  98.69927 116.73832  99.35260
      19 113.95224  98.54176         10.62762   6.669800 116.73832  99.35260 111.15139  98.69927 111.16616  97.73090 116.75309  98.38423
      19 113.96702  97.57300         10.63580   6.669800 116.75309  98.38423 111.16616  97.73090 111.18095  96.76176 116.76788  97.41508
      19 113.98181  96.60346         10.64398   6.669800 116.76788  97.41508 111.18095  96.76176 111.19575  95.79183 116.78268  96.44515
      19 113.99662  95.63314         10.65218   6.669800 116.78268  96.44515 111.19575  95.79183 111.21055  94.82111 116.79748  95.47444
      19 114.01143  94.66203         10.66037   6.669800 116.79748  95.47444 111.21055  94.82111 111.22537  93.84961 116.81230  94.50294
      19 114.02625  93.69014         10.66858   6.669800 116.81230  94.50294 111.22537  93.84961 111.24021  92.87733 116.82714  93.53066
      19 114.04109  92.71747         10.67679   6.669800 116.82714  93.53066 111.24021  92.87733 111.25505  91.90427 116.84198  92.55760
      19 114.05594  91.74401         10.68500   6.669800 116.84198  92.55760 111.25505  91.90427 111.26990  90.93042 116.85683  91.58374
      19 114.07080  90.76977         10.69322   6.669800 116.85683  91.58374 111.26990  90.93042 111.28477  89.95578 116.87170  90.60911
      19 114.08567  89.79473         10.70145   6.669800 116.87170  90.60911 111.28477  89.95578 111.29964  88.98035 116.88657  89.63368
      19 114.10055  88.81892         10.70969   6.669800 116.88657  89.63368 111.29964  88.98035 111.31453  88.00414 116.90146  88.65747
      19 114.11545  87.84231         10.71793   6.669800 116.90146  88.65747 111.31453  88.00414 111.32943  87.02714 116.91636  87.68047
      19 114.13035  86.86492         10.72618   6.669800 116.91636  87.68047 111.32943  87.02714 111.34434  86.04935 116.93127  86.70268
      19 114.14527  85.88673         10.73443   6.669800 116.93127  86.70268 111.34434  86.04935 111.35927  85.07077 116.94620  85.72410
      19 114.16020  84.90776         10.74269   6.669800 116.94620  85.72410 111.35927  85.07077 111.37420  84.09141 116.96113  84.74473
      19 114.17514  83.92800         10.75096   6.669800 116.96113  84.74473 111.37420  84.09141 111.38915  83.11125 116.97608  83.76458
      19 114.19009  82.94744         10.75923   6.669800 116.97608  83.76458 111.38915  83.11125 111.40410  82.13030 116.99103  82.78362
      19 114.20505  81.96609         10.76751   6.669800 116.99103  82.78362 111.40410  82.13030 111.41907  81.14855 117.00600  81.80188
      19 114.22003  80.98396         10.77580   6.669800 117.00600  81.80188 111.41907  81.14855 111.43405  80.16602 117.02098  80.81935
      19 114.23501  80.00102         10.78409   6.669800 117.02098  80.81935 111.43405  80.16602 111.44904  79.18269 117.03597  79.83602
      19 114.25001  79.01730         10.79239   6.669800 117.03597  79.83602 111.44904  79.18269 111.46405  78.19857 117.05098  78.85189
      19 114.26502  78.03278         10.80069   6.669800 117.05098  78.85189 111.46405  78.19857 111.47906  77.21365 117.06599  77.86698
      19 114.28004  77.04746         10.80900   6.669800 117.06599  77.86698 111.47906  77.21365 111.49409  76.22794 117.08102  76.88126
      19 114.29507  76.06135         10.81732   6.669800 117.08102  76.88126 111.49409  76.22794 111.50913  75.24143 117.09606  75.89475
      19 114.31012  75.07444         10.82565   6.669800 117.09606  75.89475 111.50913  75.24143 111.52418  74.25412 117.11111  74.90745
      19 114.32517  74.08674         10.83398   6.669800 117.11111  74.90745 111.52418  74.25412 111.53924  73.26602 117.12617  73.91934
      19 114.34024  73.09823         10.84231   6.669800 117.12617  73.91934 111.53924  73.26602 111.55431  72.27712 117.14124  72.93044
      19 114.35532  72.10893         10.85066   6.669800 117.14124  72.93044 111.55431  72.27712 111.56939  71.28741 117.15632  71.94074
      19 114.37041  71.11883         10.85901   6.669800 117.15632  71.94074 111.56939  71.28741 111.58449  70.29691 117.17142  70.95024
      19 114.38551  70.12793         10.86736   6.669800 117.17142  70.95024 111.58449  70.29691 111.59960  69.30561 117.18653  69.95894
      19 114.40062  69.13623         10.87573   6.669800 117.18653  69.95894 111.59960  69.30561 111.61472  68.31351 117.20165  68.96684
      19 114.41575  68.14373         10.88410   6.669800 117.20165  68.96684 111.61472  68.31351 111.62985  67.32061 117.21678  67.97394
      19 114.43088  67.15043         10.89247   6.669800 117.21678  67.97394 111.62985  67.32061 111.64499  66.32691 117.23192  66.98023
      19 114.44603  66.15632         10.90085   6.669800 117.23192  66.98023 111.64499  66.32691 111.66014  65.33240 117.24707  65.98573
      19 114.46119  65.16141         10.90924   6.669800 117.24707  65.98573 111.66014  65.33240 111.67531  64.33709 117.26224  64.99042
      19 114.47636  64.16570         10.91764   6.669800 117.26224  64.99042 111.67531  64.33709 111.69049  63.34097 117.27742  63.99430
      19 114.49155  63.16918         10.92604   6.669800 117.27742  63.99430 111.69049  63.34097 111.70567  62.34405 117.29260  62.99738
      19 114.50674  62.17186         10.93445   6.669800 117.29260  62.99738 111.70567  62.34405 111.72088  61.34633 117.30781  61.99966
      19 114.52195  61.17373         10.94286   6.669800 117.30781  61.99966 111.72088  61.34633 111.73609  60.34780 117.32302  61.00112
      19 114.53717  60.17479         10.95128   6.669800 117.32302  61.00112 111.73609  60.34780 111.75131  59.34846 117.33824  60.00178
      19 114.55240  59.17505         10.95971   6.669800 117.33824  60.00178 111.75131  59.34846 111.76655  58.34831 117.35348  59.00164
      19 114.56764  58.17450         10.96814   6.669800 117.35348  59.00164 111.76655  58.34831 111.78180  57.34736 117.36873  58.00068
      19 114.58289  57.17314         10.97658   6.669800 117.36873  58.00068 111.78180  57.34736 111.79705  56.34559 117.38398  56.99892
      19 114.59816  56.17097         10.98503   6.669800 117.38398  56.99892 111.79705  56.34559 111.81233  55.34302 117.39926  55.99635
      19 114.61343  55.16800         10.99348   6.669800 117.39926  55.99635 111.81233  55.34302 111.82761  54.33964 117.41454  54.99296
      19 114.62872  54.16421         11.00194   6.669800 117.41454  54.99296 111.82761  54.33964 111.84290  53.33544 117.42983  53.98877
      19 114.64402  53.15961         11.01041   6.669800 117.42983  53.98877 111.84290  53.33544 111.85821  52.33043 117.44514  52.98376
      19 114.65933  52.15419         11.01888   6.669800 117.44514  52.98376 111.85821  52.33043 111.87353  51.32462 117.46046  51.97794
      19 114.67466  51.14797         11.02736   6.669800 117.46046  51.97794 111.87353  51.32462 111.88886  50.31798 117.47579  50.97131
      19 114.68999  50.14093         11.03585   6.669800 117.47579  50.97131 111.88886  50.31798 111.90420  49.31054 117.49113  49.96387
      19 114.70534  49.13308         11.04434   6.669800 117.49113  49.96387 111.90420  49.31054 111.91955  48.30228 117.50648  48.95561
      19 114.72070  48.12441         11.05284   6.669800 117.50648  48.95561 111.91955  48.30228 111.93492  47.29320 117.52185  47.94653
      19 114.73607  47.11493         11.06134   6.669800 117.52185  47.94653 111.93492  47.29320 111.95030  46.28331 117.53723  46.93664
      19 114.75145  46.10463         11.06986   6.669800 117.53723  46.93664 111.95030  46.28331 111.96568  45.27261 117.55261  45.92593
      19 114.76685  45.09351         11.07837   6.669800 117.55261  45.92593 111.96568  45.27261 111.98108  44.26108 117.56801  44.91441
      19 114.78226  44.08158         11.08690   6.669800 117.56801  44.91441 111.98108  44.26108 111.99650  43.24874 117.58343  43.90207
      19 114.79767  43.06883         11.09543   6.669800 117.58343  43.90207 111.99650  43.24874 112.01192  42.23558 117.59885  42.88891
      19 114.81311  42.05526         11.10397   6.669800 117.59885  42.88891 112.01192  42.23558 112.02736  41.22160 117.61429  41.87493
      19 114.82855  41.04087         11.11251   6.669800 117.61429  41.87493 112.02736  41.22160 112.04281  40.20680 117.62974  40.86013
      19 114.84400  40.02566         11.12107   6.669800 117.62974  40.86013 112.04281  40.20680 112.05827  39.19118 117.64520  39.84450
      19 114.85947  39.00962         11.12962   6.669800 117.64520  39.84450 112.05827  39.19118 112.07374  38.17473 117.66067  38.82806
      19 114.87495  37.99277         11.13819   6.669800 117.66067  38.82806 112.07374  38.17473 112.08922  37.15747 117.67615  37.81080
      19 114.89044  36.97510         11.14676   6.669800 117.67615  37.81080 112.08922  37.15747 112.10472  36.13938 117.69165  36.79271
      19 114.90594  35.95660         11.15534   6.669800 117.69165  36.79271 112.10472  36.13938 112.12023  35.12047 117.70716  35.77380
      19 114.92145  34.93727         11.16392   6.669800 117.70716  35.77380 112.12023  35.12047 112.13575  34.10074 117.72268  34.75407
      19 114.93698  33.91713         11.17251   6.669800 117.72268  34.75407 112.13575  34.10074 112.15128  33.08018 117.73821  33.73351
      19 114.95251  32.89616         11.18111   6.669800 117.73821  33.73351 112.15128  33.08018 112.16682  32.05879 117.75375  32.71212
      19 114.96806  31.87436         11.18971   6.669800 117.75375  32.71212 112.16682  32.05879 112.18238  31.03658 117.76931  31.68991
      19 114.98363  30.85173         11.19832   6.669800 117.76931  31.68991 112.18238  31.03658 112.19794  30.01355 117.78487  30.66687
      19 114.99920  29.82828         11.20694   6.669800 117.78487  30.66687 112.19794  30.01355 112.21352  28.98968 117.80045  29.64301
      19 115.01479  28.80400         11.21557   6.669800 117.80045  29.64301 112.21352  28.98968 112.22912  27.96499 117.81605  28.61831
      19 115.03038  27.77889         11.22420   6.669800 117.81605  28.61831 112.22912  27.96499 112.24472  26.93946 117.83165  27.59279
      19 115.04599  26.75296         11.23283   6.669800 117.83165  27.59279 112.24472  26.93946 112.26033  25.91311 117.84726  26.56644
      19 115.06161  25.72619         11.24148   6.669800 117.84726  26.56644 112.26033  25.91311 112.27596  24.88593 117.86289  25.53926
      19 115.07725  24.69859         11.25013   6.669800 117.86289  25.53926 112.27596  24.88593 112.29160  23.85791 117.87853  24.51124
      19 115.09289  23.67016         11.25879   6.669800 117.87853  24.51124 112.29160  23.85791 112.30725  22.82907 117.89418  23.48240
      19 115.10855  22.64090         11.26745   6.669800 117.89418  23.48240 112.30725  22.82907 112.32292  21.79939 117.90985  22.45272
      19 115.12422  21.61080         11.27612   6.669800 117.90985  22.45272 112.32292  21.79939 112.33859  20.76888 117.92552  21.42221
      19 115.13990  20.57988         11.28480   6.669800 117.92552  21.42221 112.33859  20.76888 112.35428  19.73753 117.94121  20.39086
      19 115.15560  19.54811         11.29348   6.669800 117.94121  20.39086 112.35428  19.73753 112.36998  18.70535 117.95691  19.35868
      18 105.67018 127.56701         10.95128   6.940260 108.45718 128.37940 102.87340 127.69970 102.88318 126.75462 108.46696 127.43431
      18 105.67996 126.62155         10.95971   6.940260 108.46696 127.43431 102.88318 126.75462 102.89296 125.80878 108.47675 126.48847
      18 105.68975 125.67532         10.96814   6.940260 108.47675 126.48847 102.89296 125.80878 102.90276 124.86217 108.48654 125.54186
      18 105.69955 124.72833         10.97658   6.940260 108.48654 125.54186 102.90276 124.86217 102.91256 123.91479 108.49634 124.59448
      18 105.70935 123.78057         10.98503   6.940260 108.49634 124.59448 102.91256 123.91479 102.92236 122.96665 108.50615 123.64634
      18 105.71916 122.83205         10.99348   6.940260 108.50615 123.64634 102.92236 122.96665 102.93218 122.01774 108.51596 122.69743
      18 105.72898 121.88275         11.00194   6.940260 108.51596 122.69743 102.93218 122.01774 102.94200 121.06807 108.52579 121.74776
      18 105.73881 120.93269         11.01041   6.940260 108.52579 121.74776 102.94200 121.06807 102.95183 120.11762 108.53562 120.79731
      18 105.74864 119.98187         11.01888   6.940260 108.53562 120.79731 102.95183 120.11762 102.96167 119.16641 108.54545 119.84610
      18 105.75848 119.03027         11.02736   6.940260 108.54545 119.84610 102.96167 119.16641 102.97151 118.21443 108.55530 118.89412
      18 105.76833 118.07790         11.03585   6.940260 108.55530 118.89412 102.97151 118.21443 102.98137 117.26167 108.56515 117.94137
      18 105.77819 117.12476         11.04434   6.940260 108.56515 117.94137 102.98137 117.26167 102.99123 116.30815 108.57501 116.98785
      18 105.78805 116.17086         11.05284   6.940260 108.57501 116.98785 102.99123 116.30815 103.00110 115.35386 108.58488 116.03355
      18 105.79793 115.21618         11.06134   6.940260 108.58488 116.03355 103.00110 115.35386 103.01097 114.39879 108.59476 115.07848
      18 105.80781 114.26072         11.06986   6.940260 108.59476 115.07848 103.01097 114.39879 103.02086 113.44295 108.60464 114.12265
      18 105.81769 113.30450         11.07837   6.940260 108.60464 114.12265 103.02086 113.44295 103.03075 112.48634 108.61453 113.16603
      18 105.82759 112.34750         11.08690   6.940260 108.61453 113.16603 103.03075 112.48634 103.04064 111.52895 108.62443 112.20865
      18 105.83749 111.38973         11.09543   6.940260 108.62443 112.20865 103.04064 111.52895 103.05055 110.57079 108.63433 111.25049
      18 105.84740 110.43118         11.10397   6.940260 108.63433 111.25049 103.05055 110.57079 103.06046 109.61186 108.64425 110.29155
      18 105.85732 109.47185         11.11251   6.940260 108.64425 110.29155 103.06046 109.61186 103.07039 108.65215 108.65417 109.33184
      18 105.86724 108.51175         11.12107   6.940260 108.65417 109.33184 103.07039 108.65215 103.08032 107.69166 108.66410 108.37135
      18 105.87718 107.55088         11.12962   6.940260 108.66410 108.37135 103.08032 107.69166 103.09025 106.73039 108.67404 107.41009
      18 105.88712 106.58922         11.13819   6.940260 108.67404 107.41009 103.09025 106.73039 103.10020 105.76835 108.68398 106.44804
      18 105.89706 105.62679         11.14676   6.940260 108.68398 106.44804 103.10020 105.76835 103.11015 104.80553 108.69393 105.48522
      18 105.90702 104.66358         11.15534   6.940260 108.69393 105.48522 103.11015 104.80553 103.12011 103.84193 108.70389 104.52162
      18 105.91698 103.69959         11.16392   6.940260 108.70389 104.52162 103.12011 103.84193 103.13008 102.87754 108.71386 103.55724
      18 105.92695 102.73481         11.17251   6.940260 108.71386 103.55724 103.13008 102.87754 103.14005 101.91238 108.72383 102.59208
      18 105.93693 101.76926         11.18111   6.940260 108.72383 102.59208 103.14005 101.91238 103.15003 100.94644 108.73382 101.62613
      18 105.94692 100.80293         11.18971   6.940260 108.73382 101.62613 103.15003 100.94644 103.16002  99.97971 108.74381 100.65941
      18 105.95691  99.83581         11.19832   6.940260 108.74381 100.65941 103.16002  99.97971 103.17002  99.01221 108.75380  99.69190
      18 105.96692  98.86791         11.20694   6.940260 108.75380  99.69190 103.17002  99.01221 103.18003  98.04392 108.76381  98.72361
      18 105.97693  97.89923         11.21557   6.940260 108.76381  98.72361 103.18003  98.04392 103.19004  97.07484 108.77382  97.75454
      18 105.98694  96.92977         11.22420   6.940260 108.77382  97.75454 103.19004  97.07484 103.20006  96.10498 108.78385  96.78468
      18 105.99697  95.95951         11.23283   6.940260 108.78385  96.78468 103.20006  96.10498 103.21009  95.13434 108.79387  95.81403
      18 106.00700  94.98848         11.24148   6.940260 108.79387  95.81403 103.21009  95.13434 103.22013  94.16291 108.80391  94.84260
      18 106.01704  94.01665         11.25013   6.940260 108.80391  94.84260 103.22013  94.16291 103.23017  93.19069 108.81395  93.87039
      18 106.02709  93.04404         11.25879   6.940260 108.81395  93.87039 103.23017  93.19069 103.24022  92.21769 108.82401  92.89738
      18 106.03714  92.07065         11.26745   6.940260 108.82401  92.89738 103.24022  92.21769 103.25028  91.24390 108.83407  91.92359
      18 106.04721  91.09646         11.27612   6.940260 108.83407  91.92359 103.25028  91.24390 103.26035  90.26932 108.84413  90.94901
      18 106.05728  90.12149         11.28480   6.940260 108.84413  90.94901 103.26035  90.26932 103.27043  89.29395 108.85421  89.97365
      18 106.06736  89.14572         11.29348   6.940260 108.85421  89.97365 103.27043  89.29395 103.28051  88.31779 108.86429  88.99749
      18 106.07745  88.16917         11.30217   6.940260 108.86429  88.99749 103.28051  88.31779 103.29060  87.34084 108.87438  88.02054
      18 106.08754  87.19183         11.31087   6.940260 108.87438  88.02054 103.29060  87.34084 103.30070  86.36310 108.88448  87.04280
      18 106.09764  86.21369         11.31957   6.940260 108.88448  87.04280 103.30070  86.36310 103.31080  85.38457 108.89459  86.06427
      18 106.10775  85.23476         11.32828   6.940260 108.89459  86.06427 103.31080  85.38457 103.32092  84.40525 108.90470  85.08494
      18 106.11787  84.25504         11.33700   6.940260 108.90470  85.08494 103.32092  84.40525 103.33104  83.42513 108.91482  84.10482
      18 106.12800  83.27453         11.34573   6.940260 108.91482  84.10482 103.33104  83.42513 103.34117  82.44422 108.92495  83.12391
      18 106.13813  82.29322         11.35446   6.940260 108.92495  83.12391 103.34117  82.44422 103.35131  81.46251 108.93509  82.14221
      18 106.14827  81.31111         11.36319   6.940260 108.93509  82.14221 103.35131  81.46251 103.36145  80.48001 108.94524  81.15970
      18 106.15842  80.32821         11.37194   6.940260 108.94524  81.15970 103.36145  80.48001 103.37160  79.49671 108.95539  80.17641
      18 106.16858  79.34452         11.38069   6.940260 108.95539  80.17641 103.37160  79.49671 103.38177  78.51262 108.96555  79.19231
      18 106.17874  78.36003         11.38945   6.940260 108.96555  79.19231 103.38177  78.51262 103.39193  77.52773 108.97572  78.20742
      18 106.18891  77.37474         11.39821   6.940260 108.97572  78.20742 103.39193  77.52773 103.40211  76.54204 108.98589  77.22173
      18 106.19909  76.38865         11.40698   6.940260 108.98589  77.22173 103.40211  76.54204 103.41230  75.55555 108.99608  76.23525
      18 106.20928  75.40176         11.41576   6.940260 108.99608  76.23525 103.41230  75.55555 103.42249  74.56827 109.00627  75.24796
      18 106.21948  74.41408         11.42455   6.940260 109.00627  75.24796 103.42249  74.56827 103.43269  73.58018 109.01647  74.25988
      18 106.22968  73.42559         11.43334   6.940260 109.01647  74.25988 103.43269  73.58018 103.44289  72.59129 109.02668  73.27099
      18 106.23989  72.43630         11.44214   6.940260 109.02668  73.27099 103.44289  72.59129 103.45311  71.60161 109.03689  72.28130
      18 106.25011  71.44621         11.45094   6.940260 109.03689  72.28130 103.45311  71.60161 103.46333  70.61112 109.04712  71.29081
      18 106.26034  70.45532         11.45975   6.940260 109.04712  71.29081 103.46333  70.61112 103.47357  69.61982 109.05735  70.29952
      18 106.27058  69.46363         11.46857   6.940260 109.05735  70.29952 103.47357  69.61982 103.48380  68.62773 109.06759  69.30742
      18 106.28082  68.47113         11.47740   6.940260 109.06759  69.30742 103.48380  68.62773 103.49405  67.63483 109.07784  68.31452
      18 106.29107  67.47783         11.48623   6.940260 109.07784  68.31452 103.49405  67.63483 103.50431  66.64112 109.08809  67.32082
      18 106.30133  66.48372         11.49507   6.940260 109.08809  67.32082 103.50431  66.64112 103.51457  65.64661 109.09835  66.32631
      18 106.31160  65.48881         11.50391   6.940260 109.09835  66.32631 103.51457  65.64661 103.52484  64.65130 109.10862  65.33099
      18 106.32187  64.49309         11.51277   6.940260 109.10862  65.33099 103.52484  64.65130 103.53512  63.65517 109.11890  64.33487
      18 106.33215  63.49656         11.52162   6.940260 109.11890  64.33487 103.53512  63.65517 103.54541  62.65824 109.12919  63.33794
      18 106.34245  62.49923         11.53049   6.940260 109.12919  63.33794 103.54541  62.65824 103.55570  61.66051 109.13948  62.34020
      18 106.35274  61.50108         11.53936   6.940260 109.13948  62.34020 103.55570  61.66051 103.56600  60.66196 109.14979  61.34165
      18 106.36305  60.50213         11.54824   6.940260 109.14979  61.34165 103.56600  60.66196 103.57631  59.66260 109.16010  60.34230
      18 106.37336  59.50237         11.55713   6.940260 109.16010  60.34230 103.57631  59.66260 103.58663  58.66244 109.17042  59.34213
      18 106.38369  58.50180         11.56602   6.940260 109.17042  59.34213 103.58663  58.66244 103.59696  57.66146 109.18074  58.34115
      18 106.39402  57.50042         11.57492   6.940260 109.18074  58.34115 103.59696  57.66146 103.60729  56.65967 109.19108  57.33936
      18 106.40436  56.49822         11.58383   6.940260 109.19108  57.33936 103.60729  56.65967 103.61763  55.65707 109.20142  56.33676
      18 106.41470  55.49521         11.59275   6.940260 109.20142  56.33676 103.61763  55.65707 103.62799  54.65366 109.21177  55.33335
      18 106.42506  54.49139         11.60167   6.940260 109.21177  55.33335 103.62799  54.65366 103.63834  53.64943 109.22213  54.32912
      18 106.43542  53.48676         11.61059   6.940260 109.22213  54.32912 103.63834  53.64943 103.64871  52.64439 109.23249  53.32408
      18 106.44579  52.48131         11.61953   6.940260 109.23249  53.32408 103.64871  52.64439 103.65908  51.63853 109.24287  52.31822
      18 106.45617  51.47505         11.62847   6.940260 109.24287  52.31822 103.65908  51.63853 103.66947  50.63186 109.25325  51.31155
      18 106.46655  50.46797         11.63742   6.940260 109.25325  51.31155 103.66947  50.63186 103.67986  49.62437 109.26364  50.30406
      18 106.47695  49.46007         11.64637   6.940260 109.26364  50.30406 103.67986  49.62437 103.69025  48.61606 109.27404  49.29576
      18 106.48735  48.45135         11.65534   6.940260 109.27404  49.29576 103.69025  48.61606 103.70066  47.60694 109.28444  48.28663
      18 106.49776  47.44182         11.66431   6.940260 109.28444  48.28663 103.70066  47.60694 103.71107  46.59700 109.29486  47.27669
      18 106.50818  46.43147         11.67328   6.940260 109.29486  47.27669 103.71107  46.59700 103.72150  45.58624 109.30528  46.26593
      18 106.51860  45.42030         11.68226   6.940260 109.30528  46.26593 103.72150  45.58624 103.73193  44.57466 109.31571  45.25435
      18 106.52904  44.40831         11.69125   6.940260 109.31571  45.25435 103.73193  44.57466 103.74236  43.56226 109.32615  44.24195
      18 106.53948  43.39550         11.70025   6.940260 109.32615  44.24195 103.74236  43.56226 103.75281  42.54903 109.33659  43.22873
      18 106.54993  42.38186         11.70925   6.940260 109.33659  43.22873 103.75281  42.54903 103.76326  41.53499 109.34705  42.21468
      18 106.56039  41.36741         11.71827   6.940260 109.34705  42.21468 103.76326  41.53499 103.77373  40.52012 109.35751  41.19982
      18 106.57085  40.35213         11.72728   6.940260 109.35751  41.19982 103.77373  40.52012 103.78420  39.50443 109.36798  40.18413
      18 106.58133  39.33603         11.73631   6.940260 109.36798  40.18413 103.78420  39.50443 103.79467  38.48792 109.37846  39.16761
      18 106.59181  38.31910         11.74534   6.940260 109.37846  39.16761 103.79467  38.48792 103.80516  37.47058 109.38895  38.15027
      18 106.60230  37.30135         11.75438   6.940260 109.38895  38.15027 103.80516  37.47058 103.81566  36.45242 109.39944  37.13211
      18 106.61280  36.28277         11.76342   6.940260 109.39944  37.13211 103.81566  36.45242 103.82616  35.43343 109.40994  36.11312
      18 106.62331  35.26337         11.77247   6.940260 109.40994  36.11312 103.82616  35.43343 103.83667  34.41361 109.42045  35.09330
      18 106.63382  34.24314         11.78153   6.940260 109.42045  35.09330 103.83667  34.41361 103.84719  33.39296 109.43097  34.07266
      18 106.64434  33.22208         11.79060   6.940260 109.43097  34.07266 103.84719  33.39296 103.85771  32.37149 109.44150  33.05119
      18 106.65487  32.20019         11.79967   6.940260 109.44150  33.05119 103.85771  32.37149 103.86825  31.34919 109.45203  32.02888
      18 106.66541  31.17748         11.80875   6.940260 109.45203  32.02888 103.86825  31.34919 103.87879  30.32606 109.46258  31.00575
      18 106.67596  30.15393         11.81784   6.940260 109.46258  31.00575 103.87879  30.32606 103.88934  29.30210 109.47313  29.98179
      18 106.68652  29.12955         11.82693   6.940260 109.47313  29.98179 103.88934  29.30210 103.89990  28.27731 109.48369  28.95700
      18 106.69708  28.10435         11.83604   6.940260 109.48369  28.95700 103.89990  28.27731 103.91047  27.25168 109.49425  27.93137
      18 106.70765  27.07830         11.84514   6.940260 109.49425  27.93137 103.91047  27.25168 103.92105  26.22522 109.50483  26.90492
      18 106.71823  26.05143         11.85426   6.940260 109.50483  26.90492 103.92105  26.22522 103.93163  25.19793 109.51541  25.87763
      18 106.72882  25.02373         11.86338   6.940260 109.51541  25.87763 103.93163  25.19793 103.94222  24.16981 109.52600  24.84950
      18 106.73941  23.99518         11.87251   6.940260 109.52600  24.84950 103.94222  24.16981 103.95282  23.14085 109.53660  23.82055
      18 106.75002  22.96581         11.88165   6.940260 109.53660  23.82055 103.95282  23.14085 103.96343  22.11106 109.54721  22.79075
      18 106.76063  21.93560         11.89079   6.940260 109.54721  22.79075 103.96343  22.11106 103.97405  21.08043 109.55783  21.76012
      18 106.77125  20.90455         11.89994   6.940260 109.55783  21.76012 103.97405  21.08043 103.98467  20.04896 109.56845  20.72866
      18 106.78188  19.87267         11.90910   6.940260 109.56845  20.72866 103.98467  20.04896 103.99530  19.01666 109.57909  19.69636
      18 106.79251  18.83994         11.91826   6.940260 109.57909  19.69636 103.99530  19.01666 104.00594  17.98352 109.58973  18.66321
      18 106.80316  17.80638         11.92743   6.940260 109.58973  18.66321 104.00594  17.98352 104.01659  16.94954 109.60038  17.62923
      18 106.81381  16.77198         11.93661   6.940260 109.60038  17.62923 104.01659  16.94954 104.02725  15.91472 109.61103  16.59441
      18 106.82447  15.73674         11.94580   6.940260 109.61103  16.59441 104.02725  15.91472 104.03791  14.87906 109.62170  15.55875
      18 106.83514  14.70066         11.95499   6.940260 109.62170  15.55875 104.03791  14.87906 104.04859  13.84256 109.63237  14.52225
      18 106.84582  13.66374         11.96419   6.940260 109.63237  14.52225 104.04859  13.84256 104.05927  12.80522 109.64305  13.48491
      18 106.85651  12.62598         11.97340   6.940260 109.64305  13.48491 104.05927  12.80522 104.06996  11.76703 109.65374  12.44673
      17  96.85655 127.78595         11.58383   7.292520  99.64357 128.61550  94.06407 127.90149  94.06954 126.95640  99.64904 127.67041
      17  96.86202 126.84048         11.59275   7.292520  99.64904 127.67041  94.06954 126.95640  94.07501 126.01054  99.65451 126.72455
      17  96.86750 125.89423         11.60167   7.292520  99.65451 126.72455  94.07501 126.01054  94.08049 125.06391  99.65999 125.77792
      17  96.87298 124.94722         11.61059   7.292520  99.65999 125.77792  94.08049 125.06391  94.08597 124.11651  99.66547 124.83052
      17  96.87847 123.99944         11.61953   7.292520  99.66547 124.83052  94.08597 124.11651  94.09146 123.16835  99.67096 123.88236
      17  96.88395 123.05089         11.62847   7.292520  99.67096 123.88236  94.09146 123.16835  94.09695 122.21941  99.67645 122.93342
      17  96.88945 122.10157         11.63742   7.292520  99.67645 122.93342  94.09695 122.21941  94.10245 121.26971  99.68194 121.98372
      17  96.89494 121.15149         11.64637   7.292520  99.68194 121.98372  94.10245 121.26971  94.10794 120.31924  99.68744 121.03325
      17  96.90045 120.20063         11.65534   7.292520  99.68744 121.03325  94.10794 120.31924  94.11345 119.36800  99.69295 120.08201
      17  96.90595 119.24900         11.66431   7.292520  99.69295 120.08201  94.11345 119.36800  94.11896 118.41598  99.69846 119.12999
      17  96.91146 118.29660         11.67328   7.292520  99.69846 119.12999  94.11896 118.41598  94.12447 117.46320  99.70397 118.17721
      17  96.91698 117.34343         11.68226   7.292520  99.70397 118.17721  94.12447 117.46320  94.12999 116.50964  99.70949 117.22365
      17  96.92250 116.38948         11.69125   7.292520  99.70949 117.22365  94.12999 116.50964  94.13551 115.55531  99.71501 116.26932
      17  96.92802 115.43476         11.70025   7.292520  99.71501 116.26932  94.13551 115.55531  94.14103 114.60020  99.72053 115.31421
      17  96.93355 114.47927         11.70925   7.292520  99.72053 115.31421  94.14103 114.60020  94.14656 113.64432  99.72606 114.35833
      17  96.93908 113.52300         11.71827   7.292520  99.72606 114.35833  94.14656 113.64432  94.15209 112.68766  99.73159 113.40167
      17  96.94461 112.56596         11.72728   7.292520  99.73159 113.40167  94.15209 112.68766  94.15763 111.73023  99.73713 112.44424
      17  96.95015 111.60814         11.73631   7.292520  99.73713 112.44424  94.15763 111.73023  94.16317 110.77202  99.74267 111.48603
      17  96.95570 110.64954         11.74534   7.292520  99.74267 111.48603  94.16317 110.77202  94.16872 109.81304  99.74822 110.52705
      17  96.96125 109.69017         11.75438   7.292520  99.74822 110.52705  94.16872 109.81304  94.17427 108.85328  99.75377 109.56729
      17  96.96680 108.73001         11.76342   7.292520  99.75377 109.56729  94.17427 108.85328  94.17983 107.89273  99.75933 108.60674
      17  96.97236 107.76908         11.77247   7.292520  99.75933 108.60674  94.17983 107.89273  94.18538 106.93141  99.76488 107.64542
      17  96.97792 106.80737         11.78153   7.292520  99.76488 107.64542  94.18538 106.93141  94.19095 105.96931  99.77045 106.68332
      17  96.98348 105.84488         11.79060   7.292520  99.77045 106.68332  94.19095 105.96931  94.19652 105.00643  99.77602 105.72044
      17  96.98905 104.88161         11.79967   7.292520  99.77602 105.72044  94.19652 105.00643  94.20209 104.04277  99.78159 104.75678
      17  96.99463 103.91755         11.80875   7.292520  99.78159 104.75678  94.20209 104.04277  94.20766 103.07832  99.78716 103.79233
      17  97.00020 102.95272         11.81784   7.292520  99.78716 103.79233  94.20766 103.07832  94.21324 102.11309  99.79274 102.82710
      17  97.00579 101.98710         11.82693   7.292520  99.79274 102.82710  94.21324 102.11309  94.21883 101.14708  99.79833 101.86109
      17  97.01137 101.02070         11.83604   7.292520  99.79833 101.86109  94.21883 101.14708  94.22442 100.18029  99.80392 100.89430
      17  97.01697 100.05351         11.84514   7.292520  99.80392 100.89430  94.22442 100.18029  94.23001  99.21271  99.80951  99.92672
      17  97.02256  99.08554         11.85426   7.292520  99.80951  99.92672  94.23001  99.21271  94.23561  98.24435  99.81511  98.95836
      17  97.02816  98.11678         11.86338   7.292520  99.81511  98.95836  94.23561  98.24435  94.24121  97.27520  99.82071  97.98921
      17  97.03376  97.14724         11.87251   7.292520  99.82071  97.98921  94.24121  97.27520  94.24682  96.30526  99.82632  97.01927
      17  97.03937  96.17691         11.88165   7.292520  99.82632  97.01927  94.24682  96.30526  94.25243  95.33454  99.83193  96.04855
      17  97.04499  95.20579         11.89079   7.292520  99.83193  96.04855  94.25243  95.33454  94.25804  94.36303  99.83754  95.07704
      17  97.05060  94.23389         11.89994   7.292520  99.83754  95.07704  94.25804  94.36303  94.26366  93.39073  99.84316  94.10474
      17  97.05622  93.26119         11.90910   7.292520  99.84316  94.10474  94.26366  93.39073  94.26929  92.41764  99.84879  93.13165
      17  97.06185  92.28771         11.91826   7.292520  99.84879  93.13165  94.26929  92.41764  94.27491  91.44376  99.85441  92.15777
      17  97.06748  91.31343         11.92743   7.292520  99.85441  92.15777  94.27491  91.44376  94.28055  90.46909  99.86005  91.18310
      17  97.07312  90.33837         11.93661   7.292520  99.86005  91.18310  94.28055  90.46909  94.28618  89.49363  99.86568  90.20764
      17  97.07875  89.36251         11.94580   7.292520  99.86568  90.20764  94.28618  89.49363  94.29182  88.51738  99.87132  89.23139
      17  97.08440  88.38586         11.95499   7.292520  99.87132  89.23139  94.29182  88.51738  94.29747  87.54033  99.87697  88.25434
      17  97.09004  87.40842         11.96419   7.292520  99.87697  88.25434  94.29747  87.54033  94.30312  86.56249  99.88262  87.27650
      17  97.09570  86.43019         11.97340   7.292520  99.88262  87.27650  94.30312  86.56249  94.30877  85.58386  99.88827  86.29787
      17  97.10135  85.45116         11.98261   7.292520  99.88827  86.29787  94.30877  85.58386  94.31443  84.60443  99.89393  85.31844
      17  97.10701  84.47133         11.99183   7.292520  99.89393  85.31844  94.31443  84.60443  94.32009  83.62421  99.89959  84.33822
      17  97.11268  83.49071         12.00106   7.292520  99.89959  84.33822  94.32009  83.62421  94.32576  82.64319  99.90526  83.35720
      17  97.11835  82.50930         12.01029   7.292520  99.90526  83.35720  94.32576  82.64319  94.33143  81.66138  99.91093  82.37539
      17  97.12402  81.52708         12.01954   7.292520  99.91093  82.37539  94.33143  81.66138  94.33711  80.67877  99.91661  81.39278
      17  97.12970  80.54407         12.02879   7.292520  99.91661  81.39278  94.33711  80.67877  94.34279  79.69536  99.92229  80.40937
      17  97.13538  79.56026         12.03804   7.292520  99.92229  80.40937  94.34279  79.69536  94.34847  78.71115  99.92797  79.42516
      17  97.14107  78.57565         12.04731   7.292520  99.92797  79.42516  94.34847  78.71115  94.35416  77.72614  99.93366  78.44015
      17  97.14676  77.59025         12.05658   7.292520  99.93366  78.44015  94.35416  77.72614  94.35986  76.74033  99.93936  77.45434
      17  97.15245  76.60404         12.06585   7.292520  99.93936  77.45434  94.35986  76.74033  94.36555  75.75372  99.94505  76.46773
      17  97.15815  75.61703         12.07514   7.292520  99.94505  76.46773  94.36555  75.75372  94.37126  74.76631  99.95076  75.48032
      17  97.16386  74.62922         12.08443   7.292520  99.95076  75.48032  94.37126  74.76631  94.37696  73.77810  99.95646  74.49211
      17  97.16957  73.64060         12.09373   7.292520  99.95646  74.49211  94.37696  73.77810  94.38267  72.78909  99.96217  73.50310
      17  97.17528  72.65119         12.10304   7.292520  99.96217  73.50310  94.38267  72.78909  94.38839  71.79927  99.96789  72.51328
      17  97.18100  71.66097         12.11235   7.292520  99.96789  72.51328  94.38839  71.79927  94.39411  70.80865  99.97361  71.52266
      17  97.18672  70.66994         12.12167   7.292520  99.97361  71.52266  94.39411  70.80865  94.39983  69.81722  99.97933  70.53123
      17  97.19245  69.67811         12.13100   7.292520  99.97933  70.53123  94.39983  69.81722  94.40556  68.82499  99.98506  69.53900
      17  97.19818  68.68548         12.14034   7.292520  99.98506  69.53900  94.40556  68.82499  94.41129  67.83195  99.99079  68.54596
      17  97.20391  67.69204         12.14968   7.292520  99.99079  68.54596  94.41129  67.83195  94.41703  66.83810  99.99653  67.55211
      17  97.20965  66.69779         12.15903   7.292520  99.99653  67.55211  94.41703  66.83810  94.42277  65.84345 100.00227  66.55746
      17  97.21539  65.70273         12.16838   7.292520 100.00227  66.55746  94.42277  65.84345  94.42852  64.84799 100.00802  65.56200
      17  97.22114  64.70686         12.17775   7.292520 100.00802  65.56200  94.42852  64.84799  94.43427  63.85172 100.01377  64.56573
      17  97.22690  63.71019         12.18712   7.292520 100.01377  64.56573  94.43427  63.85172  94.44002  62.85464 100.01952  63.56865
      17  97.23265  62.71270         12.19650   7.292520 100.01952  63.56865  94.44002  62.85464  94.44578  61.85675 100.02528  62.57076
      17  97.23841  61.71441         12.20588   7.292520 100.02528  62.57076  94.44578  61.85675  94.45155  60.85805 100.03105  61.57206
      17  97.24418  60.71530         12.21528   7.292520 100.03105  61.57206  94.45155  60.85805  94.45731  59.85854 100.03681  60.57255
      17  97.24995  59.71538         12.22468   7.292520 100.03681  60.57255  94.45731  59.85854  94.46309  58.85821 100.04259  59.57222
      17  97.25573  58.71465         12.23408   7.292520 100.04259  59.57222  94.46309  58.85821  94.46886  57.85707 100.04836  58.57108
      17  97.26150  57.71311         12.24350   7.292520 100.04836  58.57108  94.46886  57.85707  94.47465  56.85512 100.05415  57.56913
      17  97.26729  56.71075         12.25292   7.292520 100.05415  57.56913  94.47465  56.85512  94.48043  55.85236 100.05993  56.56637
      17  97.27308  55.70758         12.26235   7.292520 100.05993  56.56637  94.48043  55.85236  94.48622  54.84877 100.06572  55.56278
      17  97.27887  54.70359         12.27178   7.292520 100.06572  55.56278  94.48622  54.84877  94.49202  53.84438 100.07152  54.55839
      17  97.28467  53.69878         12.28123   7.292520 100.07152  54.55839  94.49202  53.84438  94.49782  52.83916 100.07732  53.55317
      17  97.29047  52.69316         12.29068   7.292520 100.07732  53.55317  94.49782  52.83916  94.50362  51.83313 100.08312  52.54714
      17  97.29627  51.68672         12.30014   7.292520 100.08312  52.54714  94.50362  51.83313  94.50943  50.82629 100.08893  51.54030
      17  97.30208  50.67946         12.30960   7.292520 100.08893  51.54030  94.50943  50.82629  94.51524  49.81862 100.09474  50.53263
      17  97.30790  49.67139         12.31907   7.292520 100.09474  50.53263  94.51524  49.81862  94.52106  48.81013 100.10056  49.52414
      17  97.31372  48.66249         12.32855   7.292520 100.10056  49.52414  94.52106  48.81013  94.52688  47.80083 100.10638  48.51484
      17  97.31954  47.65277         12.33804   7.292520 100.10638  48.51484  94.52688  47.80083  94.53271  46.79070 100.11221  47.50471
      17  97.32537  46.64224         12.34754   7.292520 100.11221  47.50471  94.53271  46.79070  94.53854  45.77975 100.11804  46.49376
      17  97.33120  45.63088         12.35704   7.292520 100.11804  46.49376  94.53854  45.77975  94.54437  44.76798 100.12387  45.48199
      17  97.33704  44.61869         12.36655   7.292520 100.12387  45.48199  94.54437  44.76798  94.55021  43.75539 100.12971  44.46940
      17  97.34288  43.60569         12.37606   7.292520 100.12971  44.46940  94.55021  43.75539  94.55606  42.74197 100.13556  43.45598
      17  97.34873  42.59186         12.38559   7.292520 100.13556  43.45598  94.55606  42.74197  94.56190  41.72773 100.14140  42.44174
      17  97.35458  41.57721         12.39512   7.292520 100.14140  42.44174  94.56190  41.72773  94.56776  40.71266 100.14726  41.42667
      17  97.36044  40.56173         12.40466   7.292520 100.14726  41.42667  94.56776  40.71266  94.57362  39.69677 100.15312  40.41078
      17  97.36630  39.54542         12.41420   7.292520 100.15312  40.41078  94.57362  39.69677  94.57948  38.68005 100.15898  39.39406
      17  97.37216  38.52829         12.42375   7.292520 100.15898  39.39406  94.57948  38.68005  94.58534  37.66251 100.16484  38.37652
      17  97.37803  37.51033         12.43331   7.292520 100.16484  38.37652  94.58534  37.66251  94.59122  36.64414 100.17072  37.35815
      17  97.38390  36.49155         12.44288   7.292520 100.17072  37.35815  94.59122  36.64414  94.59709  35.62494 100.17659  36.33895
      17  97.38978  35.47193         12.45246   7.292520 100.17659  36.33895  94.59709  35.62494  94.60297  34.60491 100.18247  35.31892
      17  97.39566  34.45149         12.46204   7.292520 100.18247  35.31892  94.60297  34.60491  94.60886  33.58405 100.18836  34.29806
      17  97.40155  33.43021         12.47163   7.292520 100.18836  34.29806  94.60886  33.58405  94.61475  32.56236 100.19425  33.27637
      17  97.40744  32.40811         12.48123   7.292520 100.19425  33.27637  94.61475  32.56236  94.62064  31.53983 100.20014  32.25384
      17  97.41334  31.38517         12.49083   7.292520 100.20014  32.25384  94.62064  31.53983  94.62654  30.51648 100.20604  31.23049
      17  97.41924  30.36140         12.50044   7.292520 100.20604  31.23049  94.62654  30.51648  94.63244  29.49230 100.21194  30.20631
      17  97.42514  29.33680         12.51006   7.292520 100.21194  30.20631  94.63244  29.49230  94.63835  28.46728 100.21785  29.18129
      17  97.43105  28.31136         12.51969   7.292520 100.21785  29.18129  94.63835  28.46728  94.64426  27.44142 100.22376  28.15543
      17  97.43697  27.28509         12.52932   7.292520 100.22376  28.15543  94.64426  27.44142  94.65018  26.41473 100.22968  27.12874
      17  97.44289  26.25798         12.53897   7.292520 100.22968  27.12874  94.65018  26.41473  94.65610  25.38721 100.23560  26.10122
      17  97.44881  25.23004         12.54862   7.292520 100.23560  26.10122  94.65610  25.38721  94.66202  24.35885 100.24152  25.07286
      17  97.45474  24.20126         12.55827   7.292520 100.24152  25.07286  94.66202  24.35885  94.66795  23.32965 100.24745  24.04366
      17  97.46067  23.17165         12.56794   7.292520 100.24745  24.04366  94.66795  23.32965  94.67389  22.29962 100.25339  23.01363
      17  97.46661  22.14119         12.57761   7.292520 100.25339  23.01363  94.67389  22.29962  94.67983  21.26875 100.25933  21.98276
      17  97.47255  21.10990         12.58729   7.292520 100.25933  21.98276  94.67983  21.26875  94.68577  20.23703 100.26527  20.95104
      17  97.47850  20.07777         12.59697   7.292520 100.26527  20.95104  94.68577  20.23703  94.69172  19.20448 100.27122  19.91849
      17  97.48445  19.04480         12.60667   7.292520 100.27122  19.91849  94.69172  19.20448  94.69767  18.17109 100.27717  18.88510
      17  97.49040  18.01098         12.61637   7.292520 100.27717  18.88510  94.69767  18.17109  94.70363  17.13686 100.28313  17.85087
      17  97.49636  16.97633         12.62608   7.292520 100.28313  17.85087  94.70363  17.13686  94.70959  16.10178 100.28909  16.81579
      17  97.50233  15.94083         12.63579   7.292520 100.28909  16.81579  94.70959  16.10178  94.71556  15.06586 100.29506  15.77987
      17  97.50829  14.90449         12.64552   7.292520 100.29506  15.77987  94.71556  15.06586  94.72153  14.02910 100.30103  14.74311
      17  97.51427  13.86731         12.65525   7.292520 100.30103  14.74311  94.72153  14.02910  94.72751  12.99149 100.30701  13.70550
      17  97.52025  12.82928         12.66498   7.292520 100.30701  13.70550  94.72751  12.99149  94.73349  11.95304 100.31299  12.66705
      17  97.52623  11.79041         12.67473   7.292520 100.31299  12.66705  94.73349  11.95304  94.73947  10.91375 100.31897  11.62776
      17  97.53222  10.75069         12.68448   7.292520 100.31897  11.62776  94.73947  10.91375  94.74546   9.87361 100.32496  10.58762
      17  97.53821   9.71012         12.69425   7.292520 100.32496  10.58762  94.74546   9.87361  94.75146   8.83262 100.33096   9.54663
      17  97.54421   8.66871         12.70401   7.292520 100.33096   9.54663  94.75146   8.83262  94.75746   7.79078 100.33696   8.50479
      17  97.55021   7.62645         12.71379   7.292520 100.33696   8.50479  94.75746   7.79078  94.76346   6.74809 100.34296   7.46210
      17  97.55621   6.58334         12.72357   7.292520 100.34296   7.46210  94.76346   6.74809  94.76947   5.70456 100.34897   6.41857
      16  87.32111 127.38926         12.30014   7.726600  90.11060 128.24022  84.53667 127.48396  84.53161 126.53830  90.10554 127.29456
      16  87.31604 126.44323         12.30960   7.726600  90.10554 127.29456  84.53161 126.53830  84.52655 125.59188  90.10048 126.34814
      16  87.31098 125.49642         12.31907   7.726600  90.10048 126.34814  84.52655 125.59188  84.52148 124.64469  90.09541 125.40095
      16  87.30590 124.54885         12.32855   7.726600  90.09541 125.40095  84.52148 124.64469  84.51640 123.69673  90.09033 124.45299
      16  87.30083 123.60050         12.33804   7.726600  90.09033 124.45299  84.51640 123.69673  84.51133 122.74800  90.08526 123.50426
      16  87.29575 122.65138         12.34754   7.726600  90.08526 123.50426  84.51133 122.74800  84.50624 121.79850  90.08017 122.55476
      16  87.29067 121.70149         12.35704   7.726600  90.08017 122.55476  84.50624 121.79850  84.50116 120.84822  90.07509 121.60448
      16  87.28558 120.75083         12.36655   7.726600  90.07509 121.60448  84.50116 120.84822  84.49607 119.89717  90.07000 120.65343
      16  87.28049 119.79940         12.37606   7.726600  90.07000 120.65343  84.49607 119.89717  84.49098 118.94535  90.06491 119.70161
      16  87.27539 118.84719         12.38559   7.726600  90.06491 119.70161  84.49098 118.94535  84.48588 117.99275  90.05981 118.74901
      16  87.27029 117.89420         12.39512   7.726600  90.05981 118.74901  84.48588 117.99275  84.48078 117.03938  90.05471 117.79564
      16  87.26519 116.94045         12.40466   7.726600  90.05471 117.79564  84.48078 117.03938  84.47567 116.08524  90.04960 116.84150
      16  87.26009 115.98591         12.41420   7.726600  90.04960 116.84150  84.47567 116.08524  84.47057 115.13032  90.04450 115.88658
      16  87.25497 115.03060         12.42375   7.726600  90.04450 115.88658  84.47057 115.13032  84.46545 114.17462  90.03938 114.93088
      16  87.24986 114.07451         12.43331   7.726600  90.03938 114.93088  84.46545 114.17462  84.46034 113.21814  90.03427 113.97440
      16  87.24474 113.11765         12.44288   7.726600  90.03427 113.97440  84.46034 113.21814  84.45522 112.26088  90.02915 113.01714
      16  87.23962 112.16000         12.45246   7.726600  90.02915 113.01714  84.45522 112.26088  84.45009 111.30285  90.02402 112.05911
      16  87.23449 111.20158         12.46204   7.726600  90.02402 112.05911  84.45009 111.30285  84.44496 110.34404  90.01889 111.10030
      16  87.22936 110.24238         12.47163   7.726600  90.01889 111.10030  84.44496 110.34404  84.43983 109.38444  90.01376 110.14070
      16  87.22423 109.28239         12.48123   7.726600  90.01376 110.14070  84.43983 109.38444  84.43469 108.42407  90.00862 109.18033
      16  87.21909 108.32163         12.49083   7.726600  90.00862 109.18033  84.43469 108.42407  84.42955 107.46291  90.00348 108.21917
      16  87.21395 107.36008         12.50044   7.726600  90.00348 108.21917  84.42955 107.46291  84.42441 106.50098  89.99834 107.25724
      16  87.20880 106.39775         12.51006   7.726600  89.99834 107.25724  84.42441 106.50098  84.41926 105.53826  89.99319 106.29452
      16  87.20365 105.43464         12.51969   7.726600  89.99319 106.29452  84.41926 105.53826  84.41411 104.57475  89.98804 105.33101
      16  87.19850 104.47074         12.52932   7.726600  89.98804 105.33101  84.41411 104.57475  84.40895 103.61046  89.98288 104.36672
      16  87.19334 103.50606         12.53897   7.726600  89.98288 104.36672  84.40895 103.61046  84.40379 102.64539  89.97772 103.40165
      16  87.18818 102.54060         12.54862   7.726600  89.97772 103.40165  84.40379 102.64539  84.39863 101.67953  89.97256 102.43579
      16  87.18301 101.57435         12.55827   7.726600  89.97256 102.43579  84.39863 101.67953  84.39346 100.71289  89.96739 101.46915
      16  87.17784 100.60731         12.56794   7.726600  89.96739 101.46915  84.39346 100.71289  84.38829  99.74546  89.96222 100.50172
      16  87.17267  99.63948         12.57761   7.726600  89.96222 100.50172  84.38829  99.74546  84.38311  98.77724  89.95704  99.53350
      16  87.16749  98.67087         12.58729   7.726600  89.95704  99.53350  84.38311  98.77724  84.37793  97.80823  89.95186  98.56449
      16  87.16231  97.70147         12.59697   7.726600  89.95186  98.56449  84.37793  97.80823  84.37275  96.83843  89.94668  97.59469
      16  87.15712  96.73128         12.60667   7.726600  89.94668  97.59469  84.37275  96.83843  84.36756  95.86785  89.94149  96.62411
      16  87.15193  95.76030         12.61637   7.726600  89.94149  96.62411  84.36756  95.86785  84.36237  94.89647  89.93630  95.65273
      16  87.14674  94.78852         12.62608   7.726600  89.93630  95.65273  84.36237  94.89647  84.35717  93.92431  89.93110  94.68057
      16  87.14154  93.81596         12.63579   7.726600  89.93110  94.68057  84.35717  93.92431  84.35197  92.95135  89.92590  93.70761
      16  87.13634  92.84261         12.64552   7.726600  89.92590  93.70761  84.35197  92.95135  84.34677  91.97760  89.92070  92.73386
      16  87.13113  91.86846         12.65525   7.726600  89.92070  92.73386  84.34677  91.97760  84.34156  91.00305  89.91549  91.75931
      16  87.12592  90.89352         12.66498   7.726600  89.91549  91.75931  84.34156  91.00305  84.33635  90.02772  89.91028  90.78398
      16  87.12071  89.91779         12.67473   7.726600  89.91028  90.78398  84.33635  90.02772  84.33114  89.05159  89.90507  89.80785
      16  87.11549  88.94126         12.68448   7.726600  89.90507  89.80785  84.33114  89.05159  84.32592  88.07466  89.89985  88.83092
      16  87.11027  87.96394         12.69425   7.726600  89.89985  88.83092  84.32592  88.07466  84.32069  87.09694  89.89462  87.85320
      16  87.10504  86.98582         12.70401   7.726600  89.89462  87.85320  84.32069  87.09694  84.31546  86.11842  89.88939  86.87468
      16  87.09981  86.00690         12.71379   7.726600  89.88939  86.87468  84.31546  86.11842  84.31023  85.13911  89.88416  85.89537
      16  87.09458  85.02719         12.72357   7.726600  89.88416  85.89537  84.31023  85.13911  84.30500  84.15899  89.87893  84.91525
      16  87.08934  84.04667         12.73336   7.726600  89.87893  84.91525  84.30500  84.15899  84.29976  83.17808  89.87369  83.93434
      16  87.08410  83.06536         12.74316   7.726600  89.87369  83.93434  84.29976  83.17808  84.29451  82.19637  89.86844  82.95263
      16  87.07885  82.08325         12.75297   7.726600  89.86844  82.95263  84.29451  82.19637  84.28926  81.21386  89.86319  81.97012
      16  87.07360  81.10034         12.76278   7.726600  89.86319  81.97012  84.28926  81.21386  84.28401  80.23055  89.85794  80.98681
      16  87.06835  80.11663         12.77260   7.726600  89.85794  80.98681  84.28401  80.23055  84.27875  79.24644  89.85268  80.00270
      16  87.06309  79.13212         12.78243   7.726600  89.85268  80.00270  84.27875  79.24644  84.27349  78.26153  89.84742  79.01779
      16  87.05783  78.14681         12.79227   7.726600  89.84742  79.01779  84.27349  78.26153  84.26823  77.27582  89.84216  78.03208
      16  87.05256  77.16069         12.80211   7.726600  89.84216  78.03208  84.26823  77.27582  84.26296  76.28930  89.83689  77.04556
      16  87.04729  76.17377         12.81197   7.726600  89.83689  77.04556  84.26296  76.28930  84.25769  75.30198  89.83162  76.05824
      16  87.04202  75.18605         12.82182   7.726600  89.83162  76.05824  84.25769  75.30198  84.25241  74.31385  89.82634  75.07011
      16  87.03674  74.19752         12.83169   7.726600  89.82634  75.07011  84.25241  74.31385  84.24713  73.32492  89.82106  74.08118
      16  87.03146  73.20818         12.84157   7.726600  89.82106  74.08118  84.24713  73.32492  84.24185  72.33518  89.81578  73.09144
      16  87.02617  72.21804         12.85145   7.726600  89.81578  73.09144  84.24185  72.33518  84.23656  71.34464  89.81049  72.10090
      16  87.02088  71.22710         12.86134   7.726600  89.81049  72.10090  84.23656  71.34464  84.23127  70.35328  89.80520  71.10954
      16  87.01558  70.23534         12.87123   7.726600  89.80520  71.10954  84.23127  70.35328  84.22597  69.36113  89.79990  70.11739
      16  87.01028  69.24278         12.88114   7.726600  89.79990  70.11739  84.22597  69.36113  84.22067  68.36816  89.79460  69.12442
      16  87.00498  68.24940         12.89105   7.726600  89.79460  69.12442  84.22067  68.36816  84.21536  67.37438  89.78929  68.13064
      16  86.99967  67.25522         12.90097   7.726600  89.78929  68.13064  84.21536  67.37438  84.21005  66.37979  89.78398  67.13605
      16  86.99436  66.26023         12.91090   7.726600  89.78398  67.13605  84.21005  66.37979  84.20474  65.38440  89.77867  66.14066
      16  86.98905  65.26443         12.92083   7.726600  89.77867  66.14066  84.20474  65.38440  84.19942  64.38819  89.77335  65.14445
      16  86.98373  64.26781         12.93078   7.726600  89.77335  65.14445  84.19942  64.38819  84.19410  63.39116  89.76803  64.14742
      16  86.97841  63.27038         12.94073   7.726600  89.76803  64.14742  84.19410  63.39116  84.18878  62.39333  89.76271  63.14959
      16  86.97308  62.27214         12.95069   7.726600  89.76271  63.14959  84.18878  62.39333  84.18345  61.39468  89.75738  62.15094
      16  86.96775  61.27309         12.96065   7.726600  89.75738  62.15094  84.18345  61.39468  84.17811  60.39522  89.75204  61.15148
      16  86.96241  60.27322         12.97063   7.726600  89.75204  61.15148  84.17811  60.39522  84.17278  59.39494  89.74671  60.15120
      16  86.95707  59.27253         12.98061   7.726600  89.74671  60.15120  84.17278  59.39494  84.16744  58.39385  89.74137  59.15011
      16  86.95173  58.27103         12.99060   7.726600  89.74137  59.15011  84.16744  58.39385  84.16209  57.39194  89.73602  58.14820
      16  86.94638  57.26872         13.00059   7.726600  89.73602  58.14820  84.16209  57.39194  84.15674  56.38922  89.73067  57.14548
      16  86.94103  56.26558         13.01060   7.726600  89.73067  57.14548  84.15674  56.38922  84.15139  55.38567  89.72532  56.14193
      16  86.93567  55.26163         13.02061   7.726600  89.72532  56.14193  84.15139  55.38567  84.14603  54.38131  89.71996  55.13757
      16  86.93031  54.25686         13.03063   7.726600  89.71996  55.13757  84.14603  54.38131  84.14066  53.37613  89.71459  54.13239
      16  86.92495  53.25127         13.04066   7.726600  89.71459  54.13239  84.14066  53.37613  84.13530  52.37013  89.70923  53.12639
      16  86.91958  52.24486         13.05069   7.726600  89.70923  53.12639  84.13530  52.37013  84.12993  51.36331  89.70386  52.11957
      16  86.91421  51.23763         13.06073   7.726600  89.70386  52.11957  84.12993  51.36331  84.12455  50.35567  89.69848  51.11193
      16  86.90883  50.22957         13.07078   7.726600  89.69848  51.11193  84.12455  50.35567  84.11917  49.34721  89.69310  50.10347
      16  86.90345  49.22070         13.08084   7.726600  89.69310  50.10347  84.11917  49.34721  84.11379  48.33792  89.68772  49.09418
      16  86.89806  48.21100         13.09091   7.726600  89.68772  49.09418  84.11379  48.33792  84.10840  47.32781  89.68233  48.08407
      16  86.89267  47.20048         13.10098   7.726600  89.68233  48.08407  84.10840  47.32781  84.10301  46.31688  89.67694  47.07314
      16  86.88728  46.18913         13.11106   7.726600  89.67694  47.07314  84.10301  46.31688  84.09762  45.30512  89.67155  46.06138
      16  86.88188  45.17696         13.12115   7.726600  89.67155  46.06138  84.09762  45.30512  84.09222  44.29253  89.66615  45.04879
      16  86.87648  44.16396         13.13125   7.726600  89.66615  45.04879  84.09222  44.29253  84.08681  43.27912  89.66074  44.03538
      16  86.87107  43.15014         13.14136   7.726600  89.66074  44.03538  84.08681  43.27912  84.08141  42.26489  89.65534  43.02115
      16  86.86566  42.13549         13.15147   7.726600  89.65534  43.02115  84.08141  42.26489  84.07599  41.24982  89.64992  42.00608
      16  86.86025  41.12001         13.16159   7.726600  89.64992  42.00608  84.07599  41.24982  84.07058  40.23393  89.64451  40.99019
      16  86.85483  40.10370         13.17172   7.726600  89.64451  40.99019  84.07058  40.23393  84.06516  39.21721  89.63909  39.97347
      16  86.84941  39.08657         13.18185   7.726600  89.63909  39.97347  84.06516  39.21721  84.05973  38.19966  89.63366  38.95592
      16  86.84398  38.06860         13.19200   7.726600  89.63366  38.95592  84.05973  38.19966  84.05430  37.18127  89.62823  37.93753
      16  86.83855  37.04980         13.20215   7.726600  89.62823  37.93753  84.05430  37.18127  84.04887  36.16206  89.62280  36.91832
      16  86.83312  36.03018         13.21231   7.726600  89.62280  36.91832  84.04887  36.16206  84.04343  35.14202  89.61736  35.89828
      16  86.82768  35.00972         13.22247   7.726600  89.61736  35.89828  84.04343  35.14202  84.03799  34.12114  89.61192  34.87740
      16  86.82223  33.98842         13.23265   7.726600  89.61192  34.87740  84.03799  34.12114  84.03255  33.09943  89.60648  33.85569
      16  86.81679  32.96629         13.24283   7.726600  89.60648  33.85569  84.03255  33.09943  84.02710  32.07689  89.60103  32.83315
      16  86.81133  31.94333         13.25302   7.726600  89.60103  32.83315  84.02710  32.07689  84.02164  31.05351  89.59557  31.80977
      16  86.80588  30.91954         13.26322   7.726600  89.59557  31.80977  84.02164  31.05351  84.01618  30.02929  89.59011  30.78555
      16  86.80042  29.89490         13.27343   7.726600  89.59011  30.78555  84.01618  30.02929  84.01072  29.00424  89.58465  29.76050
      16  86.79495  28.86944         13.28364   7.726600  89.58465  29.76050  84.01072  29.00424  84.00526  27.97836  89.57919  28.73462
      16  86.78949  27.84313         13.29386   7.726600  89.57919  28.73462  84.00526  27.97836  83.99979  26.95163  89.57372  27.70789
      16  86.78401  26.81599         13.30409   7.726600  89.57372  27.70789  83.99979  26.95163  83.99431  25.92407  89.56824  26.68033
      16  86.77854  25.78800         13.31433   7.726600  89.56824  26.68033  83.99431  25.92407  83.98883  24.89567  89.56276  25.65193
      16  86.77305  24.75918         13.32458   7.726600  89.56276  25.65193  83.98883  24.89567  83.98335  23.86643  89.55728  24.62269
      16  86.76757  23.72952         13.33483   7.726600  89.55728  24.62269  83.98335  23.86643  83.97786  22.83634  89.55179  23.59260
      16  86.76208  22.69902         13.34509   7.726600  89.55179  23.59260  83.97786  22.83634  83.97237  21.80542  89.54630  22.56168
      16  86.75659  21.66767         13.35536   7.726600  89.54630  22.56168  83.97237  21.80542  83.96687  20.77366  89.54080  21.52992
      16  86.75109  20.63549         13.36564   7.726600  89.54080  21.52992  83.96687  20.77366  83.96137  19.74105  89.53530  20.49731
      16  86.74559  19.60246         13.37593   7.726600  89.53530  20.49731  83.96137  19.74105  83.95587  18.70760  89.52980  19.46386
      16  86.74008  18.56859         13.38622   7.726600  89.52980  19.46386  83.95587  18.70760  83.95036  17.67330  89.52429  18.42956
      16  86.73457  17.53387         13.39652   7.726600  89.52429  18.42956  83.95036  17.67330  83.94485  16.63816  89.51878  17.39442
      16  86.72905  16.49831         13.40683   7.726600  89.51878  17.39442  83.94485  16.63816  83.93933  15.60218  89.51326  16.35844
      16  86.72353  15.46190         13.41715   7.726600  89.51326  16.35844  83.93933  15.60218  83.93381  14.56535  89.50774  15.32161
      16  86.71801  14.42465         13.42747   7.726600  89.50774  15.32161  83.93381  14.56535  83.92828  13.52767  89.50221  14.28393
      16  86.71248  13.38654         13.43780   7.726600  89.50221  14.28393  83.92828  13.52767  83.92275  12.48914  89.49668  13.24540
      16  86.70695  12.34759         13.44814   7.726600  89.49668  13.24540  83.92275  12.48914  83.91722  11.44977  89.49115  12.20603
      16  86.70141  11.30780         13.45849   7.726600  89.49115  12.20603  83.91722  11.44977  83.91168  10.40955  89.48561  11.16581
      16  86.69587  10.26715         13.46885   7.726600  89.48561  11.16581  83.91168  10.40955  83.90614   9.36847  89.48007  10.12473
      16  86.69033   9.22565         13.47921   7.726600  89.48007  10.12473  83.90614   9.36847  83.90059   8.32655  89.47452   9.08281
      16  86.68478   8.18330         13.48959   7.726600  89.47452   9.08281  83.90059   8.32655  83.89504   7.28378  89.46897   8.04004
      16  86.67923   7.14010         13.49997   7.726600  89.46897   8.04004  83.89504   7.28378  83.88948   6.24015  89.46341   6.99641
      16  86.67367   6.09605         13.51036   7.726600  89.46341   6.99641  83.88948   6.24015  83.88392   5.19567  89.45785   5.95193
      16  86.66811   5.05114         13.52075   7.726600  89.45785   5.95193  83.88392   5.19567  83.87836   4.15034  89.45229   4.90660
      16  86.66254   4.00538         13.53116   7.726600  89.45229   4.90660  83.87836   4.15034  83.87279   3.10415  89.44672   3.86041
      16  86.65697   2.95877         13.54157   7.726600  89.44672   3.86041  83.87279   3.10415  83.86722   2.05711  89.44115   2.81337
      16  86.65139   1.91130         13.55199   7.726600  89.44115   2.81337  83.86722   2.05711  83.86164   1.00921  89.43557   1.76547
      16  86.64582   0.86297         13.56242   7.726600  89.43557   1.76547  83.86164   1.00921  83.85606  -0.03954  89.42999   0.71672
      16  86.64023  -0.18621         13.57286   7.726600  89.42999   0.71672  83.85606  -0.03954  83.85047  -1.08916  89.42440  -0.33290
      15  75.96957 127.84140         13.10098   8.242480  78.75943 128.71747  73.19254 127.91105  73.17973 126.96533  78.74662 127.77174
      15  75.95679 126.89529         13.11106   8.242480  78.74662 127.77174  73.17973 126.96533  73.16698 126.01883  78.73388 126.82525
      15  75.94407 125.94841         13.12115   8.242480  78.73388 126.82525  73.16698 126.01883  73.15429 125.07156  78.72118 125.87798
      15  75.93141 125.00076         13.13125   8.242480  78.72118 125.87798  73.15429 125.07156  73.14166 124.12353  78.70855 124.92994
      15  75.91881 124.05234         13.14136   8.242480  78.70855 124.92994  73.14166 124.12353  73.12908 123.17472  78.69598 123.98114
      15  75.90626 123.10314         13.15147   8.242480  78.69598 123.98114  73.12908 123.17472  73.11657 122.22514  78.68346 123.03156
      15  75.89378 122.15318         13.16159   8.242480  78.68346 123.03156  73.11657 122.22514  73.10411 121.27479  78.67100 122.08120
      15  75.88135 121.20244         13.17172   8.242480  78.67100 122.08120  73.10411 121.27479  73.09171 120.32366  78.65861 121.13008
      15  75.86898 120.25093         13.18185   8.242480  78.65861 121.13008  73.09171 120.32366  73.07937 119.37176  78.64627 120.17818
      15  75.85667 119.29864         13.19200   8.242480  78.64627 120.17818  73.07937 119.37176  73.06709 118.41909  78.63399 119.22551
      15  75.84442 118.34558         13.20215   8.242480  78.63399 119.22551  73.06709 118.41909  73.05487 117.46564  78.62176 118.27206
      15  75.83223 117.39174         13.21231   8.242480  78.62176 118.27206  73.05487 117.46564  73.04271 116.51142  78.60960 117.31783
      15  75.82009 116.43713         13.22247   8.242480  78.60960 117.31783  73.04271 116.51142  73.03060 115.55642  78.59750 116.36283
      15  75.80802 115.48174         13.23265   8.242480  78.59750 116.36283  73.03060 115.55642  73.01856 114.60064  78.58546 115.40705
      15  75.79601 114.52557         13.24283   8.242480  78.58546 115.40705  73.01856 114.60064  73.00658 113.64408  78.57347 114.45050
      15  75.78406 113.56863         13.25302   8.242480  78.57347 114.45050  73.00658 113.64408  72.99466 112.68674  78.56155 113.49316
      15  75.77216 112.61090         13.26322   8.242480  78.56155 113.49316  72.99466 112.68674  72.98279 111.72863  78.54969 112.53505
      15  75.76033 111.65240         13.27343   8.242480  78.54969 112.53505  72.98279 111.72863  72.97099 110.76974  78.53789 111.57615
      15  75.74856 110.69311         13.28364   8.242480  78.53789 111.57615  72.97099 110.76974  72.95925 109.81006  78.52614 110.61648
      15  75.73685 109.73305         13.29386   8.242480  78.52614 110.61648  72.95925 109.81006  72.94757 108.84961  78.51446 109.65602
      15  75.72520 108.77220         13.30409   8.242480  78.51446 109.65602  72.94757 108.84961  72.93595 107.88837  78.50284 108.69478
      15  75.71360 107.81057         13.31433   8.242480  78.50284 108.69478  72.93595 107.88837  72.92439 106.92635  78.49128 107.73276
      15  75.70208 106.84816         13.32458   8.242480  78.49128 107.73276  72.92439 106.92635  72.91289 105.96354  78.47978 106.76996
      15  75.69061 105.88496         13.33483   8.242480  78.47978 106.76996  72.91289 105.96354  72.90145 104.99996  78.46834 105.80637
      15  75.67920 104.92098         13.34509   8.242480  78.46834 105.80637  72.90145 104.99996  72.89007 104.03558  78.45697 104.84200
      15  75.66785 103.95622         13.35536   8.242480  78.45697 104.84200  72.89007 104.03558  72.87876 103.07043  78.44565 103.87684
      15  75.65657 102.99067         13.36564   8.242480  78.44565 103.87684  72.87876 103.07043  72.86751 102.10448  78.43440 102.91090
      15  75.64535 102.02433         13.37593   8.242480  78.43440 102.91090  72.86751 102.10448  72.85631 101.13775  78.42321 101.94417
      15  75.63419 101.05721         13.38622   8.242480  78.42321 101.94417  72.85631 101.13775  72.84519 100.17024  78.41208 100.97665
      15  75.62309 100.08930         13.39652   8.242480  78.41208 100.97665  72.84519 100.17024  72.83412  99.20193  78.40101 100.00835
      15  75.61205  99.12060         13.40683   8.242480  78.40101 100.00835  72.83412  99.20193  72.82311  98.23284  78.39001  99.03926
      15  75.60108  98.15111         13.41715   8.242480  78.39001  99.03926  72.82311  98.23284  72.81217  97.26296  78.37907  98.06937
      15  75.59017  97.18083         13.42747   8.242480  78.37907  98.06937  72.81217  97.26296  72.80129  96.29229  78.36819  97.09870
      15  75.57932  96.20977         13.43780   8.242480  78.36819  97.09870  72.80129  96.29229  72.79047  95.32082  78.35737  96.12724
      15  75.56854  95.23791         13.44814   8.242480  78.35737  96.12724  72.79047  95.32082  72.77972  94.34857  78.34662  95.15498
      15  75.55781  94.26526         13.45849   8.242480  78.34662  95.15498  72.77972  94.34857  72.76903  93.37552  78.33592  94.18194
      15  75.54715  93.29182         13.46885   8.242480  78.33592  94.18194  72.76903  93.37552  72.75840  92.40168  78.32530  93.20810
      15  75.53656  92.31758         13.47921   8.242480  78.32530  93.20810  72.75840  92.40168  72.74784  91.42705  78.31473  92.23347
      15  75.52603  91.34255         13.48959   8.242480  78.31473  92.23347  72.74784  91.42705  72.73734  90.45162  78.30423  91.25804
      15  75.51556  90.36673         13.49997   8.242480  78.30423  91.25804  72.73734  90.45162  72.72690  89.47540  78.29379  90.28182
      15  75.50515  89.39011         13.51036   8.242480  78.29379  90.28182  72.72690  89.47540  72.71653  88.49839  78.28342  89.30480
      15  75.49481  88.41269         13.52075   8.242480  78.28342  89.30480  72.71653  88.49839  72.70622  87.52058  78.27311  88.32699
      15  75.48453  87.43448         13.53116   8.242480  78.27311  88.32699  72.70622  87.52058  72.69597  86.54197  78.26287  87.34838
      15  75.47432  86.45548         13.54157   8.242480  78.26287  87.34838  72.69597  86.54197  72.68579  85.56256  78.25269  86.36898
      15  75.46417  85.47567         13.55199   8.242480  78.25269  86.36898  72.68579  85.56256  72.67568  84.58236  78.24257  85.38877
      15  75.45409  84.49507         13.56242   8.242480  78.24257  85.38877  72.67568  84.58236  72.66562  83.60135  78.23252  84.40777
      15  75.44407  83.51367         13.57286   8.242480  78.23252  84.40777  72.66562  83.60135  72.65564  82.61955  78.22253  83.42597
      15  75.43412  82.53146         13.58330   8.242480  78.22253  83.42597  72.65564  82.61955  72.64572  81.63695  78.21261  82.44336
      15  75.42423  81.54846         13.59375   8.242480  78.21261  82.44336  72.64572  81.63695  72.63586  80.65354  78.20276  81.45996
      15  75.41440  80.56466         13.60421   8.242480  78.20276  81.45996  72.63586  80.65354  72.62607  79.66934  78.19296  80.47576
      15  75.40465  79.58005         13.61468   8.242480  78.19296  80.47576  72.62607  79.66934  72.61634  78.68433  78.18324  79.49075
      15  75.39495  78.59464         13.62516   8.242480  78.18324  79.49075  72.61634  78.68433  72.60668  77.69852  78.17358  78.50494
      15  75.38533  77.60843         13.63564   8.242480  78.17358  78.50494  72.60668  77.69852  72.59709  76.71191  78.16399  77.51833
      15  75.37576  76.62141         13.64614   8.242480  78.16399  77.51833  72.59709  76.71191  72.58756  75.72449  78.15446  76.53091
      15  75.36627  75.63359         13.65664   8.242480  78.15446  76.53091  72.58756  75.72449  72.57810  74.73627  78.14500  75.54269
      15  75.35684  74.64497         13.66715   8.242480  78.14500  75.54269  72.57810  74.73627  72.56871  73.74724  78.13560  74.55366
      15  75.34748  73.65554         13.67766   8.242480  78.13560  74.55366  72.56871  73.74724  72.55938  72.75741  78.12627  73.56382
      15  75.33818  72.66530         13.68819   8.242480  78.12627  73.56382  72.55938  72.75741  72.55011  71.76677  78.11701  72.57318
      15  75.32895  71.67425         13.69872   8.242480  78.11701  72.57318  72.55011  71.76677  72.54092  70.77532  78.10781  71.58173
      15  75.31979  70.68240         13.70926   8.242480  78.10781  71.58173  72.54092  70.77532  72.53179  69.78306  78.09868  70.58948
      15  75.31070  69.68974         13.71981   8.242480  78.09868  70.58948  72.53179  69.78306  72.52273  68.78999  78.08962  69.59641
      15  75.30167  68.69627         13.73037   8.242480  78.08962  69.59641  72.52273  68.78999  72.51373  67.79612  78.08063  68.60253
      15  75.29271  67.70199         13.74094   8.242480  78.08063  68.60253  72.51373  67.79612  72.50481  66.80143  78.07170  67.60785
      15  75.28382  66.70689         13.75151   8.242480  78.07170  67.60785  72.50481  66.80143  72.49595  65.80593  78.06284  66.61235
      15  75.27499  65.71099         13.76209   8.242480  78.06284  66.61235  72.49595  65.80593  72.48716  64.80962  78.05405  65.61604
      15  75.26623  64.71428         13.77268   8.242480  78.05405  65.61604  72.48716  64.80962  72.47843  63.81250  78.04533  64.61892
      15  75.25754  63.71675         13.78328   8.242480  78.04533  64.61892  72.47843  63.81250  72.46978  62.81457  78.03667  63.62098
      15  75.24892  62.71840         13.79389   8.242480  78.03667  63.62098  72.46978  62.81457  72.46119  61.81582  78.02809  62.62223
      15  75.24037  61.71925         13.80450   8.242480  78.02809  62.62223  72.46119  61.81582  72.45267  60.81625  78.01957  61.62267
      15  75.23189  60.71928         13.81513   8.242480  78.01957  61.62267  72.45267  60.81625  72.44422  59.81587  78.01112  60.62229
      15  75.22347  59.71849         13.82576   8.242480  78.01112  60.62229  72.44422  59.81587  72.43584  58.81468  78.00274  59.62109
      15  75.21512  58.71689         13.83640   8.242480  78.00274  59.62109  72.43584  58.81468  72.42753  57.81267  77.99443  58.61908
      15  75.20685  57.71447         13.84705   8.242480  77.99443  58.61908  72.42753  57.81267  72.41929  56.80984  77.98618  57.61625
      15  75.19864  56.71123         13.85770   8.242480  77.98618  57.61625  72.41929  56.80984  72.41111  55.80619  77.97801  56.61260
      15  75.19050  55.70717         13.86836   8.242480  77.97801  56.61260  72.41111  55.80619  72.40301  54.80172  77.96991  55.60814
      15  75.18243  54.70229         13.87904   8.242480  77.96991  55.60814  72.40301  54.80172  72.39498  53.79644  77.96187  54.60285
      15  75.17443  53.69660         13.88972   8.242480  77.96187  54.60285  72.39498  53.79644  72.38701  52.79033  77.95391  53.59675
      15  75.16650  52.69008         13.90041   8.242480  77.95391  53.59675  72.38701  52.79033  72.37912  51.78340  77.94601  52.58982
      15  75.15864  51.68274         13.91110   8.242480  77.94601  52.58982  72.37912  51.78340  72.37129  50.77566  77.93819  51.58207
      15  75.15085  50.67458         13.92181   8.242480  77.93819  51.58207  72.37129  50.77566  72.36354  49.76709  77.93043  50.57350
      15  75.14314  49.66560         13.93252   8.242480  77.93043  50.57350  72.36354  49.76709  72.35586  48.75769  77.92275  49.56411
      15  75.13549  48.65580         13.94324   8.242480  77.92275  49.56411  72.35586  48.75769  72.34824  47.74747  77.91514  48.55389
      15  75.12791  47.64517         13.95397   8.242480  77.91514  48.55389  72.34824  47.74747  72.34070  46.73643  77.90760  47.54285
      15  75.12040  46.63371         13.96471   8.242480  77.90760  47.54285  72.34070  46.73643  72.33323  45.72456  77.90012  46.53098
      15  75.11297  45.62143         13.97546   8.242480  77.90012  46.53098  72.33323  45.72456  72.32583  44.71187  77.89272  45.51829
      15  75.10560  44.60833         13.98621   8.242480  77.89272  45.51829  72.32583  44.71187  72.31850  43.69835  77.88540  44.50477
      15  75.09831  43.59439         13.99697   8.242480  77.88540  44.50477  72.31850  43.69835  72.31124  42.68401  77.87814  43.49042
      15  75.09109  42.57963         14.00774   8.242480  77.87814  43.49042  72.31124  42.68401  72.30406  41.66883  77.87095  42.47525
      15  75.08394  41.56404         14.01852   8.242480  77.87095  42.47525  72.30406  41.66883  72.29695  40.65283  77.86384  41.45924
      15  75.07686  40.54762         14.02931   8.242480  77.86384  41.45924  72.29695  40.65283  72.28991  39.63599  77.85680  40.44241
      15  75.06986  39.53038         14.04011   8.242480  77.85680  40.44241  72.28991  39.63599  72.28294  38.61833  77.84983  39.42475
      15  75.06293  38.51230         14.05091   8.242480  77.84983  39.42475  72.28294  38.61833  72.27604  37.59984  77.84294  38.40625
      15  75.05607  37.49339         14.06172   8.242480  77.84294  38.40625  72.27604  37.59984  72.26922  36.58051  77.83611  37.38693
      15  75.04928  36.47365         14.07254   8.242480  77.83611  37.38693  72.26922  36.58051  72.26247  35.56035  77.82936  36.36677
      15  75.04256  35.45307         14.08337   8.242480  77.82936  36.36677  72.26247  35.56035  72.25579  34.53936  77.82268  35.34578
      15  75.03592  34.43167         14.09421   8.242480  77.82268  35.34578  72.25579  34.53936  72.24918  33.51754  77.81608  34.32395
      15  75.02935  33.40942         14.10506   8.242480  77.81608  34.32395  72.24918  33.51754  72.24265  32.49488  77.80955  33.30130
      15  75.02286  32.38635         14.11591   8.242480  77.80955  33.30130  72.24265  32.49488  72.23619  31.47139  77.80309  32.27780
      15  75.01644  31.36244         14.12677   8.242480  77.80309  32.27780  72.23619  31.47139  72.22981  30.44706  77.79670  31.25347
      15  75.01009  30.33769         14.13764   8.242480  77.79670  31.25347  72.22981  30.44706  72.22350  29.42189  77.79039  30.22831
      15  75.00382  29.31210         14.14852   8.242480  77.79039  30.22831  72.22350  29.42189  72.21726  28.39589  77.78416  29.20230
      15  74.99762  28.28568         14.15941   8.242480  77.78416  29.20230  72.21726  28.39589  72.21110  27.36905  77.77799  28.17546
      15  74.99149  27.25842         14.17031   8.242480  77.77799  28.17546  72.21110  27.36905  72.20501  26.34137  77.77190  27.14778
      15  74.98544  26.23032         14.18121   8.242480  77.77190  27.14778  72.20501  26.34137  72.19900  25.31285  77.76589  26.11926
      15  74.97946  25.20138         14.19213   8.242480  77.76589  26.11926  72.19900  25.31285  72.19306  24.28349  77.75995  25.08990
      15  74.97356  24.17160         14.20305   8.242480  77.75995  25.08990  72.19306  24.28349  72.18719  23.25329  77.75409  24.05970
      15  74.96774  23.14098         14.21398   8.242480  77.75409  24.05970  72.18719  23.25329  72.18140  22.22224  77.74830  23.02866
      15  74.96199  22.10952         14.22491   8.242480  77.74830  23.02866  72.18140  22.22224  72.17569  21.19036  77.74259  21.99678
      15  74.95631  21.07721         14.23586   8.242480  77.74259  21.99678  72.17569  21.19036  72.17005  20.15763  77.73695  20.96405
      15  74.95071  20.04406         14.24682   8.242480  77.73695  20.96405  72.17005  20.15763  72.16449  19.12406  77.73139  19.93048
      15  74.94518  19.01007         14.25778   8.242480  77.73139  19.93048  72.16449  19.12406  72.15900  18.08965  77.72590  18.89606
      15  74.93974  17.97523         14.26875   8.242480  77.72590  18.89606  72.15900  18.08965  72.15359  17.05438  77.72049  17.86080
      15  74.93436  16.93954         14.27973   8.242480  77.72049  17.86080  72.15359  17.05438  72.14826  16.01828  77.71515  16.82469
      15  74.92907  15.90301         14.29072   8.242480  77.71515  16.82469  72.14826  16.01828  72.14300  14.98132  77.70990  15.78774
      15  74.92385  14.86564         14.30172   8.242480  77.70990  15.78774  72.14300  14.98132  72.13782  13.94352  77.70471  14.74994
      15  74.91870  13.82741         14.31272   8.242480  77.70471  14.74994  72.13782  13.94352  72.13271  12.90487  77.69961  13.71129
      15  74.91364  12.78834         14.32374   8.242480  77.69961  13.71129  72.13271  12.90487  72.12769  11.86538  77.69458  12.67179
      15  74.90865  11.74842         14.33476   8.242480  77.69458  12.67179  72.12769  11.86538  72.12273  10.82503  77.68963  11.63144
      15  74.90374  10.70764         14.34579   8.242480  77.68963  11.63144  72.12273  10.82503  72.11786   9.78383  77.68476  10.59025
      15  74.89890   9.66602         14.35683   8.242480  77.68476  10.59025  72.11786   9.78383  72.11307   8.74178  77.67996   9.54820
      15  74.89414   8.62355         14.36788   8.242480  77.67996   9.54820  72.11307   8.74178  72.10835   7.69888  77.67524   8.50530
      15  74.88946   7.58022         14.37893   8.242480  77.67524   8.50530  72.10835   7.69888  72.10371   6.65513  77.67060   7.46154
      15  74.88486   6.53604         14.39000   8.242480  77.67060   7.46154  72.10371   6.65513  72.09914   5.61052  77.66604   6.41694
      15  74.88034   5.49101         14.40107   8.242480  77.66604   6.41694  72.09914   5.61052  72.09466   4.56506  77.66155   5.37148
      15  74.87589   4.44512         14.41215   8.242480  77.66155   5.37148  72.09466   4.56506  72.09025   3.51875  77.65715   4.32516
      15  74.87153   3.39838         14.42324   8.242480  77.65715   4.32516  72.09025   3.51875  72.08593   2.47158  77.65282   3.27799
      15  74.86724   2.35078         14.43434   8.242480  77.65282   3.27799  72.08593   2.47158  72.08168   1.42355  77.64857   2.22997
      15  74.86303   1.30232         14.44545   8.242480  77.64857   2.22997  72.08168   1.42355  72.07751   0.37467  77.64440   1.18108
      15  74.85890   0.25301         14.45657   8.242480  77.64440   1.18108  72.07751   0.37467  72.07342  -0.67507  77.64031   0.13134
      14  63.36710 127.86827         14.01852   8.840170  66.15631 128.77361  60.59813 127.90917  60.57791 126.96292  66.13609 127.82736
      14  63.34690 126.92164         14.02931   8.840170  66.13609 127.82736  60.57791 126.96292  60.55773 126.01591  66.11591 126.88035
      14  63.32675 125.97424         14.04011   8.840170  66.11591 126.88035  60.55773 126.01591  60.53760 125.06812  66.09578 125.93256
      14  63.30664 125.02606         14.05091   8.840170  66.09578 125.93256  60.53760 125.06812  60.51752 124.11956  66.07570 124.98400
      14  63.28659 124.07712         14.06172   8.840170  66.07570 124.98400  60.51752 124.11956  60.49749 123.17022  66.05567 124.03467
      14  63.26658 123.12740         14.07254   8.840170  66.05567 124.03467  60.49749 123.17022  60.47751 122.22012  66.03569 123.08456
      14  63.24663 122.17690         14.08337   8.840170  66.03569 123.08456  60.47751 122.22012  60.45758 121.26924  66.01576 122.13368
      14  63.22672 121.22564         14.09421   8.840170  66.01576 122.13368  60.45758 121.26924  60.43770 120.31758  65.99588 121.18203
      14  63.20686 120.27360         14.10506   8.840170  65.99588 121.18203  60.43770 120.31758  60.41787 119.36515  65.97605 120.22960
      14  63.18706 119.32078         14.11591   8.840170  65.97605 120.22960  60.41787 119.36515  60.39808 118.41195  65.95626 119.27639
      14  63.16730 118.36718         14.12677   8.840170  65.95626 119.27639  60.39808 118.41195  60.37835 117.45797  65.93653 118.32241
      14  63.14759 117.41281         14.13764   8.840170  65.93653 118.32241  60.37835 117.45797  60.35867 116.50321  65.91685 117.36765
      14  63.12793 116.45767         14.14852   8.840170  65.91685 117.36765  60.35867 116.50321  60.33904 115.54767  65.89722 116.41211
      14  63.10833 115.50174         14.15941   8.840170  65.89722 116.41211  60.33904 115.54767  60.31945 114.59136  65.87763 115.45580
      14  63.08877 114.54504         14.17031   8.840170  65.87763 115.45580  60.31945 114.59136  60.29992 113.63426  65.85810 114.49871
      14  63.06926 113.58755         14.18121   8.840170  65.85810 114.49871  60.29992 113.63426  60.28044 112.67639  65.83862 113.54083
      14  63.04981 112.62929         14.19213   8.840170  65.83862 113.54083  60.28044 112.67639  60.26101 111.71773  65.81919 112.58218
      14  63.03040 111.67024         14.20305   8.840170  65.81919 112.58218  60.26101 111.71773  60.24163 110.75830  65.79981 111.62274
      14  63.01105 110.71042         14.21398   8.840170  65.79981 111.62274  60.24163 110.75830  60.22230 109.79808  65.78048 110.66252
      14  62.99175 109.74981         14.22491   8.840170  65.78048 110.66252  60.22230 109.79808  60.20303 108.83708  65.76121 109.70153
      14  62.97249 108.78842         14.23586   8.840170  65.76121 109.70153  60.20303 108.83708  60.18380 107.87530  65.74198 108.73974
      14  62.95329 107.82624         14.24682   8.840170  65.74198 108.73974  60.18380 107.87530  60.16463 106.91273  65.72281 107.77718
      14  62.93415 106.86328         14.25778   8.840170  65.72281 107.77718  60.16463 106.91273  60.14550 105.94938  65.70368 106.81382
      14  62.91505 105.89954         14.26875   8.840170  65.70368 106.81382  60.14550 105.94938  60.12643 104.98525  65.68461 105.84969
      14  62.89600 104.93501         14.27973   8.840170  65.68461 105.84969  60.12643 104.98525  60.10741 104.02032  65.66559 104.88477
      14  62.87701 103.96970         14.29072   8.840170  65.66559 104.88477  60.10741 104.02032  60.08845 103.05462  65.64663 103.91906
      14  62.85807 103.00359         14.30172   8.840170  65.64663 103.91906  60.08845 103.05462  60.06953 102.08812  65.62771 102.95256
      14  62.83918 102.03671         14.31272   8.840170  65.62771 102.95256  60.06953 102.08812  60.05067 101.12084  65.60885 101.98528
      14  62.82035 101.06903         14.32374   8.840170  65.60885 101.98528  60.05067 101.12084  60.03186 100.15276  65.59004 101.01721
      14  62.80156 100.10056         14.33476   8.840170  65.59004 101.01721  60.03186 100.15276  60.01310  99.18390  65.57128 100.04835
      14  62.78283  99.13130         14.34579   8.840170  65.57128 100.04835  60.01310  99.18390  59.99440  98.21425  65.55258  99.07870
      14  62.76415  98.16126         14.35683   8.840170  65.55258  99.07870  59.99440  98.21425  59.97574  97.24381  65.53392  98.10825
      14  62.74553  97.19042         14.36788   8.840170  65.53392  98.10825  59.97574  97.24381  59.95715  96.27258  65.51533  97.13702
      14  62.72695  96.21879         14.37893   8.840170  65.51533  97.13702  59.95715  96.27258  59.93860  95.30055  65.49678  96.16500
      14  62.70843  95.24637         14.39000   8.840170  65.49678  96.16500  59.93860  95.30055  59.92011  94.32774  65.47829  95.19218
      14  62.68997  94.27316         14.40107   8.840170  65.47829  95.19218  59.92011  94.32774  59.90167  93.35413  65.45985  94.21857
      14  62.67156  93.29915         14.41215   8.840170  65.45985  94.21857  59.90167  93.35413  59.88328  92.37972  65.44146  93.24416
      14  62.65320  92.32435         14.42324   8.840170  65.44146  93.24416  59.88328  92.37972  59.86495  91.40452  65.42313  92.26897
      14  62.63489  91.34875         14.43434   8.840170  65.42313  92.26897  59.86495  91.40452  59.84667  90.42853  65.40485  91.29297
      14  62.61664  90.37236         14.44545   8.840170  65.40485  91.29297  59.84667  90.42853  59.82845  89.45174  65.38663  90.31618
      14  62.59845  89.39517         14.45657   8.840170  65.38663  90.31618  59.82845  89.45174  59.81028  88.47415  65.36846  89.33860
      14  62.58030  88.41719         14.46769   8.840170  65.36846  89.33860  59.81028  88.47415  59.79216  87.49577  65.35034  88.36021
      14  62.56222  87.43840         14.47883   8.840170  65.35034  88.36021  59.79216  87.49577  59.77410  86.51659  65.33228  87.38103
      14  62.54418  86.45882         14.48997   8.840170  65.33228  87.38103  59.77410  86.51659  59.75610  85.53661  65.31428  86.40105
      14  62.52620  85.47844         14.50112   8.840170  65.31428  86.40105  59.75610  85.53661  59.73815  84.55583  65.29633  85.42027
      14  62.50828  84.49726         14.51228   8.840170  65.29633  85.42027  59.73815  84.55583  59.72025  83.57425  65.27843  84.43869
      14  62.49041  83.51528         14.52344   8.840170  65.27843  84.43869  59.72025  83.57425  59.70241  82.59186  65.26059  83.45631
      14  62.47260  82.53250         14.53462   8.840170  65.26059  83.45631  59.70241  82.59186  59.68462  81.60868  65.24280  82.47313
      14  62.45484  81.54892         14.54580   8.840170  65.24280  82.47313  59.68462  81.60868  59.66689  80.62470  65.22507  81.48914
      14  62.43714  80.56453         14.55700   8.840170  65.22507  81.48914  59.66689  80.62470  59.64922  79.63991  65.20740  80.50435
      14  62.41949  79.57934         14.56820   8.840170  65.20740  80.50435  59.64922  79.63991  59.63160  78.65432  65.18978  79.51876
      14  62.40190  78.59335         14.57941   8.840170  65.18978  79.51876  59.63160  78.65432  59.61403  77.66793  65.17221  78.53237
      14  62.38436  77.60655         14.59063   8.840170  65.17221  78.53237  59.61403  77.66793  59.59653  76.68073  65.15471  77.54517
      14  62.36688  76.61895         14.60186   8.840170  65.15471  77.54517  59.59653  76.68073  59.57907  75.69272  65.13725  76.55716
      14  62.34946  75.63054         14.61309   8.840170  65.13725  76.55716  59.57907  75.69272  59.56168  74.70391  65.11986  75.56835
      14  62.33209  74.64133         14.62434   8.840170  65.11986  75.56835  59.56168  74.70391  59.54434  73.71429  65.10252  74.57873
      14  62.31478  73.65130         14.63559   8.840170  65.10252  74.57873  59.54434  73.71429  59.52706  72.72386  65.08524  73.58831
      14  62.29753  72.66047         14.64686   8.840170  65.08524  73.58831  59.52706  72.72386  59.50983  71.73263  65.06801  72.59707
      14  62.28033  71.66884         14.65813   8.840170  65.06801  72.59707  59.50983  71.73263  59.49266  70.74059  65.05084  71.60503
      14  62.26319  70.67639         14.66941   8.840170  65.05084  71.60503  59.49266  70.74059  59.47555  69.74773  65.03373  70.61218
      14  62.24611  69.68313         14.68070   8.840170  65.03373  70.61218  59.47555  69.74773  59.45850  68.75407  65.01668  69.61851
      14  62.22908  68.68906         14.69199   8.840170  65.01668  69.61851  59.45850  68.75407  59.44150  67.75960  64.99968  68.62404
      14  62.21211  67.69418         14.70330   8.840170  64.99968  68.62404  59.44150  67.75960  59.42456  66.76431  64.98274  67.62875
      14  62.19520  66.69849         14.71461   8.840170  64.98274  67.62875  59.42456  66.76431  59.40768  65.76821  64.96586  66.63265
      14  62.17835  65.70198         14.72594   8.840170  64.96586  66.63265  59.40768  65.76821  59.39085  64.77130  64.94903  65.63574
      14  62.16155  64.70466         14.73727   8.840170  64.94903  65.63574  59.39085  64.77130  59.37409  63.77357  64.93227  64.63801
      14  62.14482  63.70653         14.74861   8.840170  64.93227  64.63801  59.37409  63.77357  59.35738  62.77503  64.91556  63.63947
      14  62.12814  62.70758         14.75996   8.840170  64.91556  63.63947  59.35738  62.77503  59.34073  61.77568  64.89891  62.64012
      14  62.11152  61.70782         14.77132   8.840170  64.89891  62.64012  59.34073  61.77568  59.32414  60.77550  64.88232  61.63995
      14  62.09495  60.70724         14.78268   8.840170  64.88232  61.63995  59.32414  60.77550  59.30761  59.77452  64.86579  60.63896
      14  62.07845  59.70584         14.79406   8.840170  64.86579  60.63896  59.30761  59.77452  59.29113  58.77271  64.84931  59.63715
      14  62.06200  58.70362         14.80544   8.840170  64.84931  59.63715  59.29113  58.77271  59.27472  57.77009  64.83290  58.63453
      14  62.04562  57.70059         14.81684   8.840170  64.83290  58.63453  59.27472  57.77009  59.25836  56.76664  64.81654  57.63109
      14  62.02929  56.69674         14.82824   8.840170  64.81654  57.63109  59.25836  56.76664  59.24206  55.76238  64.80024  56.62682
      14  62.01302  55.69207         14.83965   8.840170  64.80024  56.62682  59.24206  55.76238  59.22582  54.75730  64.78400  55.62174
      14  61.99682  54.68657         14.85107   8.840170  64.78400  55.62174  59.22582  54.75730  59.20965  53.75140  64.76783  54.61584
      14  61.98067  53.68026         14.86250   8.840170  64.76783  54.61584  59.20965  53.75140  59.19353  52.74467  64.75171  53.60911
      14  61.96458  52.67312         14.87393   8.840170  64.75171  53.60911  59.19353  52.74467  59.17747  51.73712  64.73565  52.60157
      14  61.94855  51.66517         14.88538   8.840170  64.73565  52.60157  59.17747  51.73712  59.16147  50.72875  64.71965  51.59320
      14  61.93258  50.65638         14.89684   8.840170  64.71965  51.59320  59.16147  50.72875  59.14553  49.71956  64.70371  50.58400
      14  61.91667  49.64678         14.90830   8.840170  64.70371  50.58400  59.14553  49.71956  59.12965  48.70954  64.68783  49.57398
      14  61.90082  48.63635         14.91977   8.840170  64.68783  49.57398  59.12965  48.70954  59.11383  47.69870  64.67201  48.56314
      14  61.88503  47.62509         14.93125   8.840170  64.67201  48.56314  59.11383  47.69870  59.09808  46.68703  64.65626  47.55147
      14  61.86931  46.61301         14.94274   8.840170  64.65626  47.55147  59.09808  46.68703  59.08238  45.67453  64.64056  46.53897
      14  61.85364  45.60010         14.95424   8.840170  64.64056  46.53897  59.08238  45.67453  59.06674  44.66121  64.62492  45.52565
      14  61.83804  44.58636         14.96575   8.840170  64.62492  45.52565  59.06674  44.66121  59.05117  43.64706  64.60935  44.51150
      14  61.82249  43.57180         14.97727   8.840170  64.60935  44.51150  59.05117  43.64706  59.03565  42.63208  64.59383  43.49652
      14  61.80701  42.55640         14.98879   8.840170  64.59383  43.49652  59.03565  42.63208  59.02020  41.61627  64.57838  42.48071
      14  61.79159  41.54018         15.00032   8.840170  64.57838  42.48071  59.02020  41.61627  59.00481  40.59963  64.56299  41.46407
      14  61.77623  40.52312         15.01187   8.840170  64.56299  41.46407  59.00481  40.59963  58.98948  39.58216  64.54766  40.44660
      14  61.76093  39.50524         15.02342   8.840170  64.54766  40.44660  58.98948  39.58216  58.97421  38.56386  64.53239  39.42830
      14  61.74569  38.48652         15.03498   8.840170  64.53239  39.42830  58.97421  38.56386  58.95901  37.54472  64.51719  38.40917
      14  61.73052  37.46697         15.04655   8.840170  64.51719  38.40917  58.95901  37.54472  58.94387  36.52476  64.50205  37.38920
      14  61.71541  36.44658         15.05813   8.840170  64.50205  37.38920  58.94387  36.52476  58.92879  35.50396  64.48697  36.36840
      14  61.70036  35.42537         15.06972   8.840170  64.48697  36.36840  58.92879  35.50396  58.91377  34.48232  64.47195  35.34676
      14  61.68537  34.40331         15.08131   8.840170  64.47195  35.34676  58.91377  34.48232  58.89881  33.45985  64.45699  34.32429
      14  61.67045  33.38043         15.09292   8.840170  64.45699  34.32429  58.89881  33.45985  58.88392  32.43655  64.44210  33.30099
      14  61.65559  32.35670         15.10453   8.840170  64.44210  33.30099  58.88392  32.43655  58.86909  31.41240  64.42727  32.27685
      14  61.64079  31.33214         15.11616   8.840170  64.42727  32.27685  58.86909  31.41240  58.85432  30.38742  64.41250  31.25187
      14  61.62605  30.30674         15.12779   8.840170  64.41250  31.25187  58.85432  30.38742  58.83962  29.36161  64.39780  30.22605
      14  61.61138  29.28050         15.13943   8.840170  64.39780  30.22605  58.83962  29.36161  58.82498  28.33495  64.38316  29.19939
      14  61.59677  28.25343         15.15108   8.840170  64.38316  29.19939  58.82498  28.33495  58.81041  27.30745  64.36859  28.17190
      14  61.58223  27.22551         15.16274   8.840170  64.36859  28.17190  58.81041  27.30745  58.79589  26.27912  64.35407  27.14356
      14  61.56775  26.19676         15.17441   8.840170  64.35407  27.14356  58.79589  26.27912  58.78145  25.24994  64.33963  26.11438
      14  61.55333  25.16716         15.18609   8.840170  64.33963  26.11438  58.78145  25.24994  58.76706  24.21992  64.32524  25.08436
      14  61.53898  24.13672         15.19777   8.840170  64.32524  25.08436  58.76706  24.21992  58.75274  23.18906  64.31092  24.05350
      14  61.52470  23.10544         15.20947   8.840170  64.31092  24.05350  58.75274  23.18906  58.73849  22.15736  64.29667  23.02180
      14  61.51047  22.07331         15.22117   8.840170  64.29667  23.02180  58.73849  22.15736  58.72430  21.12481  64.28248  21.98925
      14  61.49631  21.04034         15.23288   8.840170  64.28248  21.98925  58.72430  21.12481  58.71017  20.09142  64.26835  20.95586
      14  61.48222  20.00653         15.24461   8.840170  64.26835  20.95586  58.71017  20.09142  58.69611  19.05718  64.25429  19.92162
      14  61.46819  18.97187         15.25634   8.840170  64.25429  19.92162  58.69611  19.05718  58.68212  18.02210  64.24030  18.88654
      14  61.45423  17.93636         15.26808   8.840170  64.24030  18.88654  58.68212  18.02210  58.66819  16.98617  64.22637  17.85061
      14  61.44033  16.90001         15.27983   8.840170  64.22637  17.85061  58.66819  16.98617  58.65432  15.94939  64.21250  16.81383
      14  61.42650  15.86280         15.29158   8.840170  64.21250  16.81383  58.65432  15.94939  58.64052  14.91176  64.19870  15.77621
      14  61.41274  14.82475         15.30335   8.840170  64.19870  15.77621  58.64052  14.91176  58.62679  13.87329  64.18497  14.73773
      14  61.39904  13.78586         15.31513   8.840170  64.18497  14.73773  58.62679  13.87329  58.61312  12.83397  64.17130  13.69841
      14  61.38540  12.74611         15.32691   8.840170  64.17130  13.69841  58.61312  12.83397  58.59952  11.79379  64.15770  12.65823
      14  61.37183  11.70551         15.33871   8.840170  64.15770  12.65823  58.59952  11.79379  58.58599  10.75277  64.14417  11.61721
      14  61.35833  10.66405         15.35051   8.840170  64.14417  11.61721  58.58599  10.75277  58.57252   9.71089  64.13070  10.57533
      14  61.34490   9.62175         15.36232   8.840170  64.13070  10.57533  58.57252   9.71089  58.55912   8.66816  64.11730   9.53260
      14  61.33153   8.57859         15.37415   8.840170  64.11730   9.53260  58.55912   8.66816  58.54578   7.62458  64.10396   8.48902
      14  61.31823   7.53458         15.38598   8.840170  64.10396   8.48902  58.54578   7.62458  58.53251   6.58014  64.09069   7.44458
      14  61.30499   6.48972         15.39782   8.840170  64.09069   7.44458  58.53251   6.58014  58.51931   5.53485  64.07749   6.39929
      14  61.29183   5.44400         15.40967   8.840170  64.07749   6.39929  58.51931   5.53485  58.50618   4.48870  64.06436   5.35314
      14  61.27873   4.39743         15.42152   8.840170  64.06436   5.35314  58.50618   4.48870  58.49311   3.44170  64.05129   4.30614
      14  61.26569   3.34999         15.43339   8.840170  64.05129   4.30614  58.49311   3.44170  58.48012   2.39384  64.03830   3.25828
      14  61.25273   2.30170         15.44527   8.840170  64.03830   3.25828  58.48012   2.39384  58.46719   1.34512  64.02537   2.20956
      14  61.23983   1.25256         15.45715   8.840170  64.02537   2.20956  58.46719   1.34512  58.45432   0.29554  64.01250   1.15998
      14  61.22701   0.20255         15.46905   8.840170  64.01250   1.15998  58.45432   0.29554  58.44153  -0.75489  63.99971   0.10955
      13  48.91011 128.22218         15.06972   9.519680  51.69861 129.16065  46.15107 128.23035  46.12164 127.28371  51.66917 128.21400
      13  48.88071 127.27515         15.08131   9.519680  51.66917 128.21400  46.12164 127.28371  46.09226 126.33629  51.63979 127.26658
      13  48.85135 126.32734         15.09292   9.519680  51.63979 127.26658  46.09226 126.33629  46.06293 125.38809  51.61047 126.31839
      13  48.82205 125.37876         15.10453   9.519680  51.61047 126.31839  46.06293 125.38809  46.03366 124.43913  51.58120 125.36942
      13  48.79281 124.42941         15.11616   9.519680  51.58120 125.36942  46.03366 124.43913  46.00444 123.48939  51.55198 124.41968
      13  48.76361 123.47928         15.12779   9.519680  51.55198 124.41968  46.00444 123.48939  45.97527 122.53887  51.52281 123.46917
      13  48.73448 122.52838         15.13943   9.519680  51.52281 123.46917  45.97527 122.53887  45.94616 121.58758  51.49370 122.51788
      13  48.70539 121.57670         15.15108   9.519680  51.49370 122.51788  45.94616 121.58758  45.91710 120.63551  51.46464 121.56581
      13  48.67636 120.62425         15.16274   9.519680  51.46464 121.56581  45.91710 120.63551  45.88810 119.68267  51.43564 120.61297
      13  48.64739 119.67101         15.17441   9.519680  51.43564 120.61297  45.88810 119.68267  45.85915 118.72905  51.40669 119.65935
      13  48.61846 118.71700         15.18609   9.519680  51.40669 119.65935  45.85915 118.72905  45.83026 117.77465  51.37780 118.70495
      13  48.58960 117.76222         15.19777   9.519680  51.37780 118.70495  45.83026 117.77465  45.80142 116.81947  51.34896 117.74977
      13  48.56079 116.80665         15.20947   9.519680  51.34896 117.74977  45.80142 116.81947  45.77263 115.86352  51.32017 116.79381
      13  48.53203 115.85030         15.22117   9.519680  51.32017 116.79381  45.77263 115.86352  45.74390 114.90678  51.29144 115.83708
      13  48.50333 114.89318         15.23288   9.519680  51.29144 115.83708  45.74390 114.90678  45.71523 113.94926  51.26277 114.87956
      13  48.47468 113.93527         15.24461   9.519680  51.26277 114.87956  45.71523 113.94926  45.68661 112.99096  51.23415 113.92126
      13  48.44609 112.97658         15.25634   9.519680  51.23415 113.92126  45.68661 112.99096  45.65805 112.03188  51.20559 112.96218
      13  48.41755 112.01710         15.26808   9.519680  51.20559 112.96218  45.65805 112.03188  45.62954 111.07202  51.17708 112.00232
      13  48.38907 111.05685         15.27983   9.519680  51.17708 112.00232  45.62954 111.07202  45.60109 110.11137  51.14863 111.04167
      13  48.36065 110.09581         15.29158   9.519680  51.14863 111.04167  45.60109 110.11137  45.57269 109.14994  51.12023 110.08024
      13  48.33228 109.13399         15.30335   9.519680  51.12023 110.08024  45.57269 109.14994  45.54435 108.18772  51.09189 109.11802
      13  48.30397 108.17138         15.31513   9.519680  51.09189 109.11802  45.54435 108.18772  45.51607 107.22472  51.06361 108.15502
      13  48.27572 107.20798         15.32691   9.519680  51.06361 108.15502  45.51607 107.22472  45.48784 106.26094  51.03538 107.19123
      13  48.24752 106.24380         15.33871   9.519680  51.03538 107.19123  45.48784 106.26094  45.45967 105.29636  51.00721 106.22666
      13  48.21937 105.27884         15.35051   9.519680  51.00721 106.22666  45.45967 105.29636  45.43156 104.33100  50.97910 105.26130
      13  48.19129 104.31308         15.36232   9.519680  50.97910 105.26130  45.43156 104.33100  45.40350 103.36485  50.95104 104.29515
      13  48.16326 103.34654         15.37415   9.519680  50.95104 104.29515  45.40350 103.36485  45.37550 102.39791  50.92304 103.32821
      13  48.13529 102.37920         15.38598   9.519680  50.92304 103.32821  45.37550 102.39791  45.34756 101.43018  50.89510 102.36048
      13  48.10738 101.41108         15.39782   9.519680  50.89510 102.36048  45.34756 101.43018  45.31968 100.46167  50.86722 101.39196
      13  48.07952 100.44217         15.40967   9.519680  50.86722 101.39196  45.31968 100.46167  45.29185  99.49236  50.83939 100.42265
      13  48.05173  99.47246         15.42152   9.519680  50.83939 100.42265  45.29185  99.49236  45.26408  98.52226  50.81162  99.45255
      13  48.02399  98.50196         15.43339   9.519680  50.81162  99.45255  45.26408  98.52226  45.23637  97.55136  50.78391  98.48166
      13  47.99630  97.53068         15.44527   9.519680  50.78391  98.48166  45.23637  97.55136  45.20872  96.57968  50.75626  97.50998
      13  47.96868  96.55859         15.45715   9.519680  50.75626  97.50998  45.20872  96.57968  45.18113  95.60720  50.72866  96.53750
      13  47.94112  95.58572         15.46905   9.519680  50.72866  96.53750  45.18113  95.60720  45.15359  94.63393  50.70113  95.56422
      13  47.91361  94.61205         15.48095   9.519680  50.70113  95.56422  45.15359  94.63393  45.12611  93.65986  50.67365  94.59016
      13  47.88616  93.63758         15.49286   9.519680  50.67365  94.59016  45.12611  93.65986  45.09869  92.68499  50.64623  93.61529
      13  47.85877  92.66232         15.50479   9.519680  50.64623  93.61529  45.09869  92.68499  45.07134  91.70933  50.61887  92.63963
      13  47.83144  91.68626         15.51672   9.519680  50.61887  92.63963  45.07134  91.70933  45.04404  90.73288  50.59157  91.66317
      13  47.80417  90.70940         15.52866   9.519680  50.59157  91.66317  45.04404  90.73288  45.01680  89.75562  50.56433  90.68592
      13  47.77696  89.73175         15.54061   9.519680  50.56433  90.68592  45.01680  89.75562  44.98961  88.77757  50.53715  89.70787
      13  47.74981  88.75330         15.55257   9.519680  50.53715  89.70787  44.98961  88.77757  44.96249  87.79872  50.51003  88.72902
      13  47.72272  87.77405         15.56454   9.519680  50.51003  88.72902  44.96249  87.79872  44.93543  86.81907  50.48297  87.74936
      13  47.69569  86.79399         15.57651   9.519680  50.48297  87.74936  44.93543  86.81907  44.90843  85.83861  50.45597  86.76891
      13  47.66872  85.81314         15.58850   9.519680  50.45597  86.76891  44.90843  85.83861  44.88149  84.85736  50.42903  85.78766
      13  47.64181  84.83149         15.60049   9.519680  50.42903  85.78766  44.88149  84.85736  44.85461  83.87531  50.40214  84.80560
      13  47.61496  83.84903         15.61250   9.519680  50.40214  84.80560  44.85461  83.87531  44.82779  82.89245  50.37532  83.82275
      13  47.58817  82.86577         15.62451   9.519680  50.37532  83.82275  44.82779  82.89245  44.80103  81.90879  50.34856  82.83909
      13  47.56144  81.88171         15.63654   9.519680  50.34856  82.83909  44.80103  81.90879  44.77433  80.92432  50.32187  81.85462
      13  47.53477  80.89684         15.64857   9.519680  50.32187  81.85462  44.77433  80.92432  44.74769  79.93906  50.29523  80.86935
      13  47.50816  79.91117         15.66061   9.519680  50.29523  80.86935  44.74769  79.93906  44.72111  78.95298  50.26865  79.88328
      13  47.48161  78.92470         15.67266   9.519680  50.26865  79.88328  44.72111  78.95298  44.69460  77.96610  50.24214  78.89640
      13  47.45513  77.93741         15.68472   9.519680  50.24214  78.89640  44.69460  77.96610  44.66814  76.97842  50.21568  77.90871
      13  47.42871  76.94932         15.69679   9.519680  50.21568  77.90871  44.66814  76.97842  44.64175  75.98992  50.18929  76.92022
      13  47.40235  75.96043         15.70887   9.519680  50.18929  76.92022  44.64175  75.98992  44.61542  75.00062  50.16296  75.93092
      13  47.37605  74.97072         15.72096   9.519680  50.16296  75.93092  44.61542  75.00062  44.58916  74.01051  50.13669  74.94081
      13  47.34981  73.98021         15.73306   9.519680  50.13669  74.94081  44.58916  74.01051  44.56295  73.01959  50.11049  73.94989
      13  47.32364  72.98888         15.74517   9.519680  50.11049  73.94989  44.56295  73.01959  44.53681  72.02786  50.08434  72.95816
      13  47.29752  71.99675         15.75728   9.519680  50.08434  72.95816  44.53681  72.02786  44.51073  71.03532  50.05826  71.96562
      13  47.27148  71.00380         15.76941   9.519680  50.05826  71.96562  44.51073  71.03532  44.48471  70.04197  50.03225  70.97227
      13  47.24549  70.01004         15.78154   9.519680  50.03225  70.97227  44.48471  70.04197  44.45875  69.04780  50.00629  69.97810
      13  47.21957  69.01547         15.79369   9.519680  50.00629  69.97810  44.45875  69.04780  44.43286  68.05283  49.98040  68.98313
      13  47.19371  68.02009         15.80584   9.519680  49.98040  68.98313  44.43286  68.05283  44.40703  67.05704  49.95457  67.98733
      13  47.16791  67.02389         15.81800   9.519680  49.95457  67.98733  44.40703  67.05704  44.38127  66.06043  49.92881  66.99073
      13  47.14218  66.02688         15.83018   9.519680  49.92881  66.99073  44.38127  66.06043  44.35557  65.06301  49.90311  65.99331
      13  47.11651  65.02905         15.84236   9.519680  49.90311  65.99331  44.35557  65.06301  44.32993  64.06478  49.87747  64.99508
      13  47.09090  64.03041         15.85455   9.519680  49.87747  64.99508  44.32993  64.06478  44.30436  63.06573  49.85190  63.99602
      13  47.06536  63.03095         15.86675   9.519680  49.85190  63.99602  44.30436  63.06573  44.27885  62.06586  49.82639  62.99615
      13  47.03988  62.03067         15.87896   9.519680  49.82639  62.99615  44.27885  62.06586  44.25340  61.06517  49.80094  61.99547
      13  47.01447  61.02957         15.89118   9.519680  49.80094  61.99547  44.25340  61.06517  44.22802  60.06366  49.77556  60.99396
      13  46.98912  60.02766         15.90341   9.519680  49.77556  60.99396  44.22802  60.06366  44.20271  59.06134  49.75025  59.99164
      13  46.96384  59.02492         15.91565   9.519680  49.75025  59.99164  44.20271  59.06134  44.17746  58.05820  49.72500  58.98850
      13  46.93862  58.02137         15.92789   9.519680  49.72500  58.98850  44.17746  58.05820  44.15227  57.05423  49.69981  57.98453
      13  46.91347  57.01699         15.94015   9.519680  49.69981  57.98453  44.15227  57.05423  44.12715  56.04945  49.67469  56.97974
      13  46.88838  56.01180         15.95242   9.519680  49.67469  56.97974  44.12715  56.04945  44.10210  55.04384  49.64964  55.97414
      13  46.86336  55.00578         15.96469   9.519680  49.64964  55.97414  44.10210  55.04384  44.07711  54.03741  49.62465  54.96771
      13  46.83841  53.99894         15.97698   9.519680  49.62465  54.96771  44.07711  54.03741  44.05219  53.03015  49.59972  53.96045
      13  46.81352  52.99127         15.98927   9.519680  49.59972  53.96045  44.05219  53.03015  44.02733  52.02208  49.57487  52.95237
      13  46.78869  51.98278         16.00158   9.519680  49.57487  52.95237  44.02733  52.02208  44.00254  51.01317  49.55008  51.94347
      13  46.76394  50.97346         16.01389   9.519680  49.55008  51.94347  44.00254  51.01317  43.97782  50.00344  49.52535  50.93374
      13  46.73924  49.96332         16.02621   9.519680  49.52535  50.93374  43.97782  50.00344  43.95316  48.99289  49.50069  49.92319
      13  46.71462  48.95235         16.03855   9.519680  49.50069  49.92319  43.95316  48.99289  43.92857  47.98151  49.47610  48.91181
      13  46.69006  47.94056         16.05089   9.519680  49.47610  48.91181  43.92857  47.98151  43.90404  46.96930  49.45158  47.89960
      13  46.66557  46.92794         16.06324   9.519680  49.45158  47.89960  43.90404  46.96930  43.87959  45.95626  49.42712  46.88656
      13  46.64115  45.91448         16.07560   9.519680  49.42712  46.88656  43.87959  45.95626  43.85520  44.94239  49.40273  45.87269
      13  46.61679  44.90020         16.08797   9.519680  49.40273  45.87269  43.85520  44.94239  43.83087  43.92770  49.37841  44.85800
      13  46.59250  43.88509         16.10035   9.519680  49.37841  44.85800  43.83087  43.92770  43.80662  42.91217  49.35416  43.84247
      13  46.56828  42.86915         16.11274   9.519680  49.35416  43.84247  43.80662  42.91217  43.78243  41.89581  49.32997  42.82611
      13  46.54413  41.85237         16.12514   9.519680  49.32997  42.82611  43.78243  41.89581  43.75831  40.87862  49.30585  41.80892
      13  46.52005  40.83477         16.13755   9.519680  49.30585  41.80892  43.75831  40.87862  43.73426  39.86060  49.28180  40.79090
      13  46.49603  39.81633         16.14997   9.519680  49.28180  40.79090  43.73426  39.86060  43.71028  38.84174  49.25782  39.77204
      13  46.47208  38.79705         16.16240   9.519680  49.25782  39.77204  43.71028  38.84174  43.68637  37.82205  49.23390  38.75235
      13  46.44820  37.77694         16.17483   9.519680  49.23390  38.75235  43.68637  37.82205  43.66252  36.80153  49.21006  37.73182
      13  46.42439  36.75600         16.18728   9.519680  49.21006  37.73182  43.66252  36.80153  43.63875  35.78017  49.18628  36.71046
      13  46.40065  35.73422         16.19974   9.519680  49.18628  36.71046  43.63875  35.78017  43.61504  34.75797  49.16258  35.68827
      13  46.37698  34.71161         16.21220   9.519680  49.16258  35.68827  43.61504  34.75797  43.59140  33.73493  49.13894  34.66523
      13  46.35338  33.68815         16.22468   9.519680  49.13894  34.66523  43.59140  33.73493  43.56783  32.71106  49.11537  33.64136
      13  46.32984  32.66386         16.23716   9.519680  49.11537  33.64136  43.56783  32.71106  43.54434  31.68635  49.09187  32.61665
      13  46.30638  31.63873         16.24966   9.519680  49.09187  32.61665  43.54434  31.68635  43.52091  30.66080  49.06845  31.59110
      13  46.28299  30.61276         16.26216   9.519680  49.06845  31.59110  43.52091  30.66080  43.49755  29.63441  49.04509  30.56471
      13  46.25966  29.58595         16.27468   9.519680  49.04509  30.56471  43.49755  29.63441  43.47426  28.60718  49.02180  29.53748
      13  46.23641  28.55830         16.28720   9.519680  49.02180  29.53748  43.47426  28.60718  43.45105  27.57911  48.99858  28.50941
      13  46.21323  27.52981         16.29973   9.519680  48.99858  28.50941  43.45105  27.57911  43.42790  26.55020  48.97544  27.48050
      13  46.19012  26.50048         16.31228   9.519680  48.97544  27.48050  43.42790  26.55020  43.40482  25.52044  48.95236  26.45074
      13  46.16708  25.47030         16.32483   9.519680  48.95236  26.45074  43.40482  25.52044  43.38182  24.48984  48.92936  25.42014
      13  46.14411  24.43928         16.33739   9.519680  48.92936  25.42014  43.38182  24.48984  43.35889  23.45840  48.90642  24.38870
      13  46.12121  23.40741         16.34996   9.519680  48.90642  24.38870  43.35889  23.45840  43.33602  22.42611  48.88356  23.35641
      13  46.09839  22.37470         16.36255   9.519680  48.88356  23.35641  43.33602  22.42611  43.31323  21.39298  48.86077  22.32327
      13  46.07563  21.34114         16.37514   9.519680  48.86077  22.32327  43.31323  21.39298  43.29051  20.35899  48.83805  21.28929
      13  46.05295  20.30674         16.38774   9.519680  48.83805  21.28929  43.29051  20.35899  43.26787  19.32417  48.81540  20.25447
      13  46.03034  19.27148         16.40035   9.519680  48.81540  20.25447  43.26787  19.32417  43.24529  18.28849  48.79283  19.21879
      13  46.00780  18.23538         16.41297   9.519680  48.79283  19.21879  43.24529  18.28849  43.22279  17.25197  48.77033  18.18226
      13  45.98533  17.19843         16.42560   9.519680  48.77033  18.18226  43.22279  17.25197  43.20036  16.21459  48.74790  17.14489
      13  45.96294  16.16064         16.43824   9.519680  48.74790  17.14489  43.20036  16.21459  43.17801  15.17637  48.72554  16.10667
      13  45.94062  15.12199         16.45089   9.519680  48.72554  16.10667  43.17801  15.17637  43.15572  14.13729  48.70326  15.06759
      13  45.91837  14.08249         16.46355   9.519680  48.70326  15.06759  43.15572  14.13729  43.13351  13.09737  48.68105  14.02767
      13  45.89620  13.04213         16.47622   9.519680  48.68105  14.02767  43.13351  13.09737  43.11137  12.05659  48.65891  12.98689
      13  45.87410  12.00093         16.48890   9.519680  48.65891  12.98689  43.11137  12.05659  43.08931  11.01496  48.63685  11.94525
      13  45.85207  10.95887         16.50159   9.519680  48.63685  11.94525  43.08931  11.01496  43.06732   9.97247  48.61486  10.90277
      13  45.83012   9.91596         16.51428   9.519680  48.61486  10.90277  43.06732   9.97247  43.04541   8.92913  48.59294   9.85943
      13  45.80824   8.87219         16.52699   9.519680  48.59294   9.85943  43.04541   8.92913  43.02356   7.88494  48.57110   8.81523
      13  45.78644   7.82757         16.53971   9.519680  48.57110   8.81523  43.02356   7.88494  43.00180   6.83988  48.54933   7.77018
      13  45.76471   6.78209         16.55244   9.519680  48.54933   7.77018  43.00180   6.83988  42.98010   5.79398  48.52764   6.72427
      13  45.74305   5.73575         16.56518   9.519680  48.52764   6.72427  42.98010   5.79398  42.95849   4.74721  48.50602   5.67751
      13  45.72147   4.68855         16.57792   9.519680  48.50602   5.67751  42.95849   4.74721  42.93694   3.69959  48.48448   4.62989
      13  45.69997   3.64050         16.59068   9.519680  48.48448   4.62989  42.93694   3.69959  42.91547   2.65110  48.46301   3.58140
      13  45.67854   2.59159         16.60345   9.519680  48.46301   3.58140  42.91547   2.65110  42.89408   1.60176  48.44162   2.53206
      13  45.65718   1.54182         16.61622   9.519680  48.44162   2.53206  42.89408   1.60176  42.87277   0.55156  48.42030   1.48186
      13  45.63590   0.49118         16.62901   9.519680  48.42030   1.48186  42.87277   0.55156  42.85152  -0.49950  48.39906   0.43079
      13  45.61470  -0.56031         16.64181   9.519680  48.39906   0.43079  42.85152  -0.49950  42.83036  -1.55143  48.37790  -0.62113
      12  32.09883 126.98638         16.31228  10.281000  34.88631 127.96263  29.35162 126.95870  29.31137 126.01013  34.84606 127.01406
      12  32.05860 126.03743         16.32483  10.281000  34.84606 127.01406  29.31137 126.01013  29.27117 125.06079  34.80585 126.06472
      12  32.01842 125.08770         16.33739  10.281000  34.80585 126.06472  29.27117 125.06079  29.23102 124.11068  34.76570 125.11460
      12  31.97830 124.13720         16.34996  10.281000  34.76570 125.11460  29.23102 124.11068  29.19091 123.15978  34.72560 124.16371
      12  31.93822 123.18592         16.36255  10.281000  34.72560 124.16371  29.19091 123.15978  29.15086 122.20811  34.68555 123.21204
      12  31.89819 122.23386         16.37514  10.281000  34.68555 123.21204  29.15086 122.20811  29.11086 121.25567  34.64555 122.25959
      12  31.85822 121.28102         16.38774  10.281000  34.64555 122.25959  29.11086 121.25567  29.07091 120.30244  34.60560 121.30637
      12  31.81829 120.32741         16.40035  10.281000  34.60560 121.30637  29.07091 120.30244  29.03101 119.34844  34.56570 120.35236
      12  31.77842 119.37301         16.41297  10.281000  34.56570 120.35236  29.03101 119.34844  28.99116 118.39365  34.52585 119.39758
      12  31.73860 118.41784         16.42560  10.281000  34.52585 119.39758  28.99116 118.39365  28.95137 117.43809  34.48605 118.44201
      12  31.69883 117.46188         16.43824  10.281000  34.48605 118.44201  28.95137 117.43809  28.91162 116.48174  34.44631 117.48567
      12  31.65911 116.50515         16.45089  10.281000  34.44631 117.48567  28.91162 116.48174  28.87193 115.52461  34.40662 116.52854
      12  31.61944 115.54763         16.46355  10.281000  34.40662 116.52854  28.87193 115.52461  28.83229 114.56670  34.36697 115.57063
      12  31.57983 114.58933         16.47622  10.281000  34.36697 115.57063  28.83229 114.56670  28.79270 113.60801  34.32739 114.61194
      12  31.54026 113.63024         16.48890  10.281000  34.32739 114.61194  28.79270 113.60801  28.75316 112.64853  34.28785 113.65246
      12  31.50075 112.67037         16.50159  10.281000  34.28785 113.65246  28.75316 112.64853  28.71368 111.68827  34.24836 112.69220
      12  31.46129 111.70972         16.51428  10.281000  34.24836 112.69220  28.71368 111.68827  28.67425 110.72723  34.20893 111.73115
      12  31.42189 110.74828         16.52699  10.281000  34.20893 111.73115  28.67425 110.72723  28.63487 109.76539  34.16955 110.76932
      12  31.38254 109.78605         16.53971  10.281000  34.16955 110.76932  28.63487 109.76539  28.59554 108.80277  34.13023 109.80670
      12  31.34324 108.82304         16.55244  10.281000  34.13023 109.80670  28.59554 108.80277  28.55627 107.83937  34.09095 108.84330
      12  31.30399 107.85924         16.56518  10.281000  34.09095 108.84330  28.55627 107.83937  28.51705 106.87518  34.05173 107.87910
      12  31.26480 106.89465         16.57792  10.281000  34.05173 107.87910  28.51705 106.87518  28.47788 105.91019  34.01257 106.91412
      12  31.22566 105.92928         16.59068  10.281000  34.01257 106.91412  28.47788 105.91019  28.43877 104.94442  33.97345 105.94835
      12  31.18657 104.96311         16.60345  10.281000  33.97345 105.94835  28.43877 104.94442  28.39971 103.97786  33.93439 104.98179
      12  31.14754 103.99615         16.61622  10.281000  33.93439 104.98179  28.39971 103.97786  28.36070 103.01051  33.89539 104.01444
      12  31.10856 103.02841         16.62901  10.281000  33.89539 104.01444  28.36070 103.01051  28.32175 102.04237  33.85644 103.04629
      12  31.06963 102.05987         16.64181  10.281000  33.85644 103.04629  28.32175 102.04237  28.28285 101.07343  33.81754 102.07736
      12  31.03076 101.09054         16.65461  10.281000  33.81754 102.07736  28.28285 101.07343  28.24401 100.10370  33.77870 101.10763
      12  30.99195 100.12041         16.66743  10.281000  33.77870 101.10763  28.24401 100.10370  28.20522  99.13318  33.73991 100.13711
      12  30.95319  99.14950         16.68026  10.281000  33.73991 100.13711  28.20522  99.13318  28.16649  98.16187  33.70117  99.16580
      12  30.91448  98.17778         16.69309  10.281000  33.70117  99.16580  28.16649  98.16187  28.12781  97.18976  33.66250  98.19369
      12  30.87583  97.20528         16.70594  10.281000  33.66250  98.19369  28.12781  97.18976  28.08918  96.21686  33.62387  97.22078
      12  30.83723  96.23198         16.71879  10.281000  33.62387  97.22078  28.08918  96.21686  28.05062  95.24316  33.58530  96.24708
      12  30.79869  95.25788         16.73166  10.281000  33.58530  96.24708  28.05062  95.24316  28.01210  94.26866  33.54679  95.27259
      12  30.76021  94.28298         16.74453  10.281000  33.54679  95.27259  28.01210  94.26866  27.97365  93.29337  33.50833  94.29729
      12  30.72178  93.30729         16.75742  10.281000  33.50833  94.29729  27.97365  93.29337  27.93525  92.31727  33.46993  93.32120
      12  30.68341  92.33080         16.77031  10.281000  33.46993  93.32120  27.93525  92.31727  27.89690  91.34038  33.43159  92.34431
      12  30.64509  91.35351         16.78322  10.281000  33.43159  92.34431  27.89690  91.34038  27.85861  90.36269  33.39330  91.36662
      12  30.60683  90.37542         16.79613  10.281000  33.39330  91.36662  27.85861  90.36269  27.82038  89.38420  33.35506  90.38813
      12  30.56862  89.39652         16.80906  10.281000  33.35506  90.38813  27.82038  89.38420  27.78220  88.40491  33.31689  89.40884
      12  30.53047  88.41683         16.82199  10.281000  33.31689  89.40884  27.78220  88.40491  27.74408  87.42482  33.27877  88.42874
      12  30.49238  87.43634         16.83494  10.281000  33.27877  88.42874  27.74408  87.42482  27.70602  86.44392  33.24071  87.44785
      12  30.45435  86.45504         16.84789  10.281000  33.24071  87.44785  27.70602  86.44392  27.66801  85.46222  33.20270  86.46615
      12  30.41637  85.47294         16.86086  10.281000  33.20270  86.46615  27.66801  85.46222  27.63006  84.47972  33.16475  85.48365
      12  30.37845  84.49004         16.87383  10.281000  33.16475  85.48365  27.63006  84.47972  27.59217  83.49642  33.12686  84.50034
      12  30.34059  83.50633         16.88682  10.281000  33.12686  84.50034  27.59217  83.49642  27.55434  82.51231  33.08903  83.51623
      12  30.30278  82.52182         16.89981  10.281000  33.08903  83.51623  27.55434  82.51231  27.51656  81.52739  33.05125  82.53132
      12  30.26504  81.53650         16.91282  10.281000  33.05125  82.53132  27.51656  81.52739  27.47885  80.54167  33.01353  81.54559
      12  30.22735  80.55037         16.92583  10.281000  33.01353  81.54559  27.47885  80.54167  27.44119  79.55514  32.97587  80.55907
      12  30.18972  79.56344         16.93886  10.281000  32.97587  80.55907  27.44119  79.55514  27.40358  78.56780  32.93827  79.57173
      12  30.15214  78.57570         16.95189  10.281000  32.93827  79.57173  27.40358  78.56780  27.36604  77.57965  32.90073  78.58358
      12  30.11463  77.58715         16.96494  10.281000  32.90073  78.58358  27.36604  77.57965  27.32856  76.59070  32.86324  77.59463
      12  30.07718  76.59779         16.97799  10.281000  32.86324  77.59463  27.32856  76.59070  27.29113  75.60094  32.82582  76.60486
      12  30.03978  75.60762         16.99106  10.281000  32.82582  76.60486  27.29113  75.60094  27.25376  74.61036  32.78845  75.61429
      12  30.00244  74.61664         17.00413  10.281000  32.78845  75.61429  27.25376  74.61036  27.21646  73.61897  32.75114  74.62290
      12  29.96516  73.62484         17.01722  10.281000  32.75114  74.62290  27.21646  73.61897  27.17921  72.62678  32.71389  73.63070
      12  29.92794  72.63224         17.03031  10.281000  32.71389  73.63070  27.17921  72.62678  27.14202  71.63377  32.67670  72.63769
      12  29.89079  71.63882         17.04342  10.281000  32.67670  72.63769  27.14202  71.63377  27.10489  70.63994  32.63958  71.64387
      12  29.85369  70.64459         17.05653  10.281000  32.63958  71.64387  27.10489  70.63994  27.06782  69.64530  32.60251  70.64923
      12  29.81665  69.64955         17.06966  10.281000  32.60251  70.64923  27.06782  69.64530  27.03081  68.64985  32.56550  69.65378
      12  29.77967  68.65369         17.08280  10.281000  32.56550  69.65378  27.03081  68.64985  26.99386  67.65358  32.52855  68.65751
      12  29.74275  67.65701         17.09594  10.281000  32.52855  68.65751  26.99386  67.65358  26.95697  66.65650  32.49166  67.66042
      12  29.70589  66.65952         17.10910  10.281000  32.49166  67.66042  26.95697  66.65650  26.92015  65.65860  32.45483  66.66252
      12  29.66909  65.66121         17.12226  10.281000  32.45483  66.66252  26.92015  65.65860  26.88338  64.65988  32.41807  65.66380
      12  29.63236  64.66208         17.13544  10.281000  32.41807  65.66380  26.88338  64.65988  26.84667  63.66034  32.38136  64.66427
      12  29.59568  63.66213         17.14863  10.281000  32.38136  64.66427  26.84667  63.66034  26.81003  62.65998  32.34471  63.66391
      12  29.55907  62.66137         17.16182  10.281000  32.34471  63.66391  26.81003  62.65998  26.77344  61.65881  32.30813  62.66274
      12  29.52252  61.65978         17.17503  10.281000  32.30813  62.66274  26.77344  61.65881  26.73692  60.65681  32.27161  61.66074
      12  29.48602  60.65738         17.18824  10.281000  32.27161  61.66074  26.73692  60.65681  26.70046  59.65400  32.23515  60.65792
      12  29.44960  59.65415         17.20147  10.281000  32.23515  60.65792  26.70046  59.65400  26.66406  58.65036  32.19875  59.65429
      12  29.41323  58.65010         17.21471  10.281000  32.19875  59.65429  26.66406  58.65036  26.62773  57.64590  32.16242  58.64982
      12  29.37692  57.64522         17.22796  10.281000  32.16242  58.64982  26.62773  57.64590  26.59145  56.64061  32.12614  57.64454
      12  29.34068  56.63953         17.24121  10.281000  32.12614  57.64454  26.59145  56.64061  26.55524  55.63450  32.08993  56.63843
      12  29.30450  55.63301         17.25448  10.281000  32.08993  56.63843  26.55524  55.63450  26.51909  54.62757  32.05378  55.63150
      12  29.26838  54.62566         17.26776  10.281000  32.05378  55.63150  26.51909  54.62757  26.48301  53.61981  32.01770  54.62374
      12  29.23233  53.61749         17.28105  10.281000  32.01770  54.62374  26.48301  53.61981  26.44699  52.61123  31.98167  53.61516
      12  29.19634  52.60849         17.29434  10.281000  31.98167  53.61516  26.44699  52.61123  26.41103  51.60182  31.94571  52.60575
      12  29.16041  51.59867         17.30765  10.281000  31.94571  52.60575  26.41103  51.60182  26.37513  50.59158  31.90982  51.59551
      12  29.12455  50.58802         17.32097  10.281000  31.90982  51.59551  26.37513  50.59158  26.33930  49.58051  31.87398  50.58444
      12  29.08875  49.57654         17.33430  10.281000  31.87398  50.58444  26.33930  49.58051  26.30353  48.56862  31.83822  49.57254
      12  29.05301  48.56423         17.34764  10.281000  31.83822  49.57254  26.30353  48.56862  26.26782  47.55589  31.80251  48.55982
      12  29.01734  47.55108         17.36099  10.281000  31.80251  48.55982  26.26782  47.55589  26.23218  46.54234  31.76687  47.54626
      12  28.98173  46.53711         17.37435  10.281000  31.76687  47.54626  26.23218  46.54234  26.19661  45.52795  31.73129  46.53188
      12  28.94618  45.52231         17.38772  10.281000  31.73129  46.53188  26.19661  45.52795  26.16110  44.51273  31.69578  45.51666
      12  28.91070  44.50668         17.40110  10.281000  31.69578  45.51666  26.16110  44.51273  26.12565  43.49668  31.66034  44.50061
      12  28.87529  43.49021         17.41449  10.281000  31.66034  44.50061  26.12565  43.49668  26.09027  42.47980  31.62495  43.48373
      12  28.83994  42.47291         17.42789  10.281000  31.62495  43.48373  26.09027  42.47980  26.05495  41.46208  31.58964  42.46601
      12  28.80466  41.45477         17.44130  10.281000  31.58964  42.46601  26.05495  41.46208  26.01970  40.44353  31.55439  41.44746
      12  28.76944  40.43580         17.45472  10.281000  31.55439  41.44746  26.01970  40.44353  25.98451  39.42414  31.51920  40.42807
      12  28.73428  39.41600         17.46816  10.281000  31.51920  40.42807  25.98451  39.42414  25.94939  38.40392  31.48408  39.40784
      12  28.69920  38.39536         17.48160  10.281000  31.48408  39.40784  25.94939  38.40392  25.91434  37.38286  31.44903  38.38678
      12  28.66418  37.37388         17.49505  10.281000  31.44903  38.38678  25.91434  37.38286  25.87935  36.36096  31.41404  37.36488
      12  28.62922  36.35156         17.50851  10.281000  31.41404  37.36488  25.87935  36.36096  25.84443  35.33822  31.37912  36.34215
      12  28.59433  35.32840         17.52199  10.281000  31.37912  36.34215  25.84443  35.33822  25.80957  34.31465  31.34426  35.31857
      12  28.55951  34.30441         17.53547  10.281000  31.34426  35.31857  25.80957  34.31465  25.77478  33.29023  31.30947  34.29416
      12  28.52475  33.27957         17.54896  10.281000  31.30947  34.29416  25.77478  33.29023  25.74006  32.26497  31.27475  33.26890
      12  28.49007  32.25390         17.56247  10.281000  31.27475  33.26890  25.74006  32.26497  25.70541  31.23888  31.24009  32.24281
      12  28.45545  31.22738         17.57598  10.281000  31.24009  32.24281  25.70541  31.23888  25.67082  30.21194  31.20551  31.21587
      12  28.42089  30.20002         17.58951  10.281000  31.20551  31.21587  25.67082  30.21194  25.63630  29.18416  31.17099  30.18809
      12  28.38641  29.17182         17.60304  10.281000  31.17099  30.18809  25.63630  29.18416  25.60185  28.15553  31.13653  29.15946
      12  28.35199  28.14277         17.61659  10.281000  31.13653  29.15946  25.60185  28.15553  25.56746  27.12606  31.10215  28.12999
      12  28.31764  27.11288         17.63015  10.281000  31.10215  28.12999  25.56746  27.12606  25.53315  26.09575  31.06783  27.09968
      12  28.28335  26.08214         17.64371  10.281000  31.06783  27.09968  25.53315  26.09575  25.49890  25.06459  31.03358  26.06852
      12  28.24914  25.05056         17.65729  10.281000  31.03358  26.06852  25.49890  25.06459  25.46472  24.03259  30.99941  25.03651
      12  28.21499  24.01813         17.67088  10.281000  30.99941  25.03651  25.46472  24.03259  25.43061  22.99973  30.96529  24.00366
      12  28.18092  22.98486         17.68448  10.281000  30.96529  24.00366  25.43061  22.99973  25.39657  21.96603  30.93125  22.96996
      12  28.14691  21.95073         17.69809  10.281000  30.93125  22.96996  25.39657  21.96603  25.36259  20.93149  30.89728  21.93541
      12  28.11297  20.91576         17.71170  10.281000  30.89728  21.93541  25.36259  20.93149  25.32869  19.89609  30.86337  20.90002
      12  28.07910  19.87994         17.72533  10.281000  30.86337  20.90002  25.32869  19.89609  25.29485  18.85984  30.82954  19.86377
      12  28.04530  18.84326         17.73897  10.281000  30.82954  19.86377  25.29485  18.85984  25.26109  17.82274  30.79578  18.82667
      12  28.01157  17.80574         17.75263  10.281000  30.79578  18.82667  25.26109  17.82274  25.22739  16.78479  30.76208  17.78872
      12  27.97791  16.76736         17.76629  10.281000  30.76208  17.78872  25.22739  16.78479  25.19377  15.74599  30.72846  16.74992
      12  27.94432  15.72813         17.77996  10.281000  30.72846  16.74992  25.19377  15.74599  25.16021  14.70634  30.69490  15.71026
      12  27.91080  14.68805         17.79364  10.281000  30.69490  15.71026  25.16021  14.70634  25.12673  13.66583  30.66142  14.66976
      12  27.87735  13.64712         17.80733  10.281000  30.66142  14.66976  25.12673  13.66583  25.09332  12.62447  30.62800  13.62839
      12  27.84398  12.60533         17.82104  10.281000  30.62800  13.62839  25.09332  12.62447  25.05997  11.58225  30.59466  12.58618
      12  27.81067  11.56268         17.83475  10.281000  30.59466  12.58618  25.05997  11.58225  25.02670  10.53917  30.56139  11.54310
      12  27.77743  10.51918         17.84847  10.281000  30.56139  11.54310  25.02670  10.53917  24.99350   9.49524  30.52819  10.49917
      12  27.74427   9.47482         17.86221  10.281000  30.52819  10.49917  24.99350   9.49524  24.96037   8.45046  30.49506   9.45438
      12  27.71117   8.42960         17.87595  10.281000  30.49506   9.45438  24.96037   8.45046  24.92732   7.40481  30.46200   8.40874
      12  27.67815   7.38353         17.88971  10.281000  30.46200   8.40874  24.92732   7.40481  24.89433   6.35831  30.42902   7.36223
      12  27.64520   6.33660         17.90348  10.281000  30.42902   7.36223  24.89433   6.35831  24.86142   5.31094  30.39610   6.31487
      12  27.61233   5.28880         17.91725  10.281000  30.39610   6.31487  24.86142   5.31094  24.82858   4.26272  30.36326   5.26665
      12  27.57952   4.24015         17.93104  10.281000  30.36326   5.26665  24.82858   4.26272  24.79581   3.21363  30.33049   4.21756
      12  27.54679   3.19063         17.94484  10.281000  30.33049   4.21756  24.79581   3.21363  24.76311   2.16369  30.29780   3.16761
      12  27.51413   2.14025         17.95865  10.281000  30.29780   3.16761  24.76311   2.16369  24.73049   1.11288  30.26518   2.11680
      12  27.48154   1.08901         17.97247  10.281000  30.26518   2.11680  24.73049   1.11288  24.69794   0.06120  30.23263   1.06513
      11  12.39948 127.86160         17.73897  11.124100  15.18494 128.87864   9.66563 127.79338   9.61403 126.84454  15.13335 127.92980
      11  12.34790 126.91237         17.75263  11.124100  15.13335 127.92980   9.61403 126.84454   9.56247 125.89493  15.08179 126.98019
      11  12.29636 125.96237         17.76629  11.124100  15.08179 126.98019   9.56247 125.89493   9.51095 124.94454  15.03026 126.02980
      11  12.24485 125.01159         17.77996  11.124100  15.03026 126.02980   9.51095 124.94454   9.45946 123.99337  14.97877 125.07863
      11  12.19338 124.06003         17.79364  11.124100  14.97877 125.07863   9.45946 123.99337   9.40800 123.04142  14.92732 124.12668
      11  12.14194 123.10770         17.80733  11.124100  14.92732 124.12668   9.40800 123.04142   9.35658 122.08870  14.87590 123.17395
      11  12.09054 122.15458         17.82104  11.124100  14.87590 123.17395   9.35658 122.08870   9.30520 121.13519  14.82452 122.22045
      11  12.03918 121.20068         17.83475  11.124100  14.82452 122.22045   9.30520 121.13519   9.25385 120.18090  14.77317 121.26616
      11  11.98785 120.24600         17.84847  11.124100  14.77317 121.26616   9.25385 120.18090   9.20254 119.22583  14.72186 120.31109
      11  11.93656 119.29054         17.86221  11.124100  14.72186 120.31109   9.20254 119.22583   9.15127 118.26998  14.67059 119.35523
      11  11.88530 118.33429         17.87595  11.124100  14.67059 119.35523   9.15127 118.26998   9.10003 117.31334  14.61935 118.39860
      11  11.83408 117.37726         17.88971  11.124100  14.61935 118.39860   9.10003 117.31334   9.04883 116.35592  14.56815 117.44118
      11  11.78290 116.41945         17.90348  11.124100  14.56815 117.44118   9.04883 116.35592   8.99767 115.39771  14.51699 116.48297
      11  11.73176 115.46085         17.91725  11.124100  14.51699 116.48297   8.99767 115.39771   8.94654 114.43873  14.46586 115.52398
      11  11.68065 114.50147         17.93104  11.124100  14.46586 115.52398   8.94654 114.43873   8.89546 113.47895  14.41477 114.56421
      11  11.62958 113.54130         17.94484  11.124100  14.41477 114.56421   8.89546 113.47895   8.84440 112.51839  14.36372 113.60365
      11  11.57855 112.58035         17.95865  11.124100  14.36372 113.60365   8.84440 112.51839   8.79339 111.55704  14.31271 112.64230
      11  11.52755 111.61860         17.97247  11.124100  14.31271 112.64230   8.79339 111.55704   8.74241 110.59490  14.26173 111.68016
      11  11.47659 110.65607         17.98630  11.124100  14.26173 111.68016   8.74241 110.59490   8.69147 109.63198  14.21079 110.71723
      11  11.42567 109.69275         18.00014  11.124100  14.21079 110.71723   8.69147 109.63198   8.64057 108.66826  14.15989 109.75352
      11  11.37479 108.72864         18.01399  11.124100  14.15989 109.75352   8.64057 108.66826   8.58971 107.70376  14.10903 108.78901
      11  11.32395 107.76374         18.02785  11.124100  14.10903 108.78901   8.58971 107.70376   8.53889 106.73846  14.05820 107.82372
      11  11.27314 106.79805         18.04173  11.124100  14.05820 107.82372   8.53889 106.73846   8.48810 105.77237  14.00742 106.85763
      11  11.22237 105.83157         18.05561  11.124100  14.00742 106.85763   8.48810 105.77237   8.43735 104.80550  13.95667 105.89075
      11  11.17165 104.86429         18.06951  11.124100  13.95667 105.89075   8.43735 104.80550   8.38664 103.83782  13.90596 104.92308
      11  11.12096 103.89623         18.08341  11.124100  13.90596 104.92308   8.38664 103.83782   8.33597 102.86936  13.85529 103.95462
      11  11.07031 102.92737         18.09733  11.124100  13.85529 103.95462   8.33597 102.86936   8.28534 101.90010  13.80466 102.98536
      11  11.01969 101.95771         18.11125  11.124100  13.80466 102.98536   8.28534 101.90010   8.23475 100.93005  13.75407 102.01531
      11  10.96912 100.98726         18.12519  11.124100  13.75407 102.01531   8.23475 100.93005   8.18420  99.95920  13.70351 101.04446
      11  10.91859 100.01601         18.13914  11.124100  13.70351 101.04446   8.18420  99.95920   8.13368  98.98755  13.65300 100.07281
      11  10.86810  99.04397         18.15310  11.124100  13.65300 100.07281   8.13368  98.98755   8.08321  98.01511  13.60253  99.10037
      11  10.81764  98.07113         18.16706  11.124100  13.60253  99.10037   8.08321  98.01511   8.03278  97.04187  13.55209  98.12713
      11  10.76723  97.09749         18.18104  11.124100  13.55209  98.12713   8.03278  97.04187   7.98238  96.06784  13.50170  97.15309
      11  10.71685  96.12305         18.19504  11.124100  13.50170  97.15309   7.98238  96.06784   7.93203  95.09300  13.45134  96.17826
      11  10.66652  95.14782         18.20904  11.124100  13.45134  96.17826   7.93203  95.09300   7.88171  94.11737  13.40103  95.20262
      11  10.61623  94.17178         18.22305  11.124100  13.40103  95.20262   7.88171  94.11737   7.83144  93.14093  13.35076  94.22619
      11  10.56597  93.19495         18.23707  11.124100  13.35076  94.22619   7.83144  93.14093   7.78121  92.16369  13.30052  93.24895
      11  10.51576  92.21731         18.25111  11.124100  13.30052  93.24895   7.78121  92.16369   7.73102  91.18566  13.25033  92.27091
      11  10.46559  91.23887         18.26515  11.124100  13.25033  92.27091   7.73102  91.18566   7.68086  90.20682  13.20018  91.29207
      11  10.41546  90.25963         18.27921  11.124100  13.20018  91.29207   7.68086  90.20682   7.63075  89.22717  13.15007  90.31243
      11  10.36537  89.27958         18.29327  11.124100  13.15007  90.31243   7.63075  89.22717   7.58068  88.24673  13.10000  89.33198
      11  10.31532  88.29873         18.30735  11.124100  13.10000  89.33198   7.58068  88.24673   7.53065  87.26547  13.04997  88.35073
      11  10.26531  87.31708         18.32144  11.124100  13.04997  88.35073   7.53065  87.26547   7.48067  86.28342  12.99998  87.36868
      11  10.21534  86.33462         18.33554  11.124100  12.99998  87.36868   7.48067  86.28342   7.43072  85.30056  12.95004  86.38581
      11  10.16542  85.35136         18.34965  11.124100  12.95004  86.38581   7.43072  85.30056   7.38082  84.31689  12.90013  85.40214
      11  10.11554  84.36728         18.36377  11.124100  12.90013  85.40214   7.38082  84.31689   7.33096  83.33241  12.85027  84.41767
      11  10.06569  83.38240         18.37790  11.124100  12.85027  84.41767   7.33096  83.33241   7.28114  82.34713  12.80045  83.43239
      11  10.01590  82.39672         18.39204  11.124100  12.80045  83.43239   7.28114  82.34713   7.23136  81.36104  12.75067  82.44629
      11   9.96614  81.41022         18.40619  11.124100  12.75067  82.44629   7.23136  81.36104   7.18162  80.37413  12.70094  81.45939
      11   9.91642  80.42291         18.42036  11.124100  12.70094  81.45939   7.18162  80.37413   7.13193  79.38642  12.65125  80.47168
      11   9.86675  79.43480         18.43453  11.124100  12.65125  80.47168   7.13193  79.38642   7.08228  78.39790  12.60160  79.48316
      11   9.81712  78.44587         18.44872  11.124100  12.60160  79.48316   7.08228  78.39790   7.03267  77.40857  12.55199  78.49383
      11   9.76754  77.45613         18.46292  11.124100  12.55199  78.49383   7.03267  77.40857   6.98311  76.41842  12.50242  77.50368
      11   9.71800  76.46558         18.47712  11.124100  12.50242  77.50368   6.98311  76.41842   6.93359  75.42746  12.45290  76.51272
      11   9.66850  75.47421         18.49134  11.124100  12.45290  76.51272   6.93359  75.42746   6.88411  74.43569  12.40342  75.52095
      11   9.61904  74.48203         18.50557  11.124100  12.40342  75.52095   6.88411  74.43569   6.83468  73.44311  12.35399  74.52836
      11   9.56963  73.48904         18.51981  11.124100  12.35399  74.52836   6.83468  73.44311   6.78528  72.44971  12.30460  73.53496
      11   9.52026  72.49523         18.53406  11.124100  12.30460  73.53496   6.78528  72.44971   6.73594  71.45549  12.25525  72.54075
      11   9.47093  71.50061         18.54833  11.124100  12.25525  72.54075   6.73594  71.45549   6.68663  70.46046  12.20595  71.54571
      11   9.42165  70.50517         18.56260  11.124100  12.20595  71.54571   6.68663  70.46046   6.63737  69.46461  12.15669  70.54987
      11   9.37241  69.50891         18.57688  11.124100  12.15669  70.54987   6.63737  69.46461   6.58816  68.46794  12.10747  69.55320
      11   9.32322  68.51183         18.59118  11.124100  12.10747  69.55320   6.58816  68.46794   6.53899  67.47045  12.05830  68.55571
      11   9.27407  67.51394         18.60549  11.124100  12.05830  68.55571   6.53899  67.47045   6.48986  66.47215  12.00918  67.55741
      11   9.22497  66.51522         18.61980  11.124100  12.00918  67.55741   6.48986  66.47215   6.44078  65.47303  11.96010  66.55828
      11   9.17591  65.51569         18.63413  11.124100  11.96010  66.55828   6.44078  65.47303   6.39174  64.47308  11.91106  65.55834
      11   9.12690  64.51533         18.64847  11.124100  11.91106  65.55834   6.39174  64.47308   6.34275  63.47231  11.86207  64.55757
      11   9.07793  63.51416         18.66282  11.124100  11.86207  64.55757   6.34275  63.47231   6.29381  62.47073  11.81312  63.55598
      11   9.02900  62.51216         18.67718  11.124100  11.81312  63.55598   6.29381  62.47073   6.24491  61.46831  11.76422  62.55357
      11   8.98013  61.50933         18.69156  11.124100  11.76422  62.55357   6.24491  61.46831   6.19605  60.46508  11.71537  61.55034
      11   8.93129  60.50569         18.70594  11.124100  11.71537  61.55034   6.19605  60.46508   6.14724  59.46102  11.66656  60.54628
      11   8.88251  59.50122         18.72033  11.124100  11.66656  60.54628   6.14724  59.46102   6.09848  58.45614  11.61779  59.54140
      11   8.83377  58.49592         18.73474  11.124100  11.61779  59.54140   6.09848  58.45614   6.04976  57.45043  11.56908  58.53569
      11   8.78507  57.48980         18.74916  11.124100  11.56908  58.53569   6.04976  57.45043   6.00109  56.44389  11.52040  57.52915
      11   8.73642  56.48285         18.76359  11.124100  11.52040  57.52915   6.00109  56.44389   5.95246  55.43653  11.47178  56.52179
      11   8.68782  55.47507         18.77802  11.124100  11.47178  56.52179   5.95246  55.43653   5.90389  54.42834  11.42320  55.51360
      11   8.63927  54.46647         18.79247  11.124100  11.42320  55.51360   5.90389  54.42834   5.85535  53.41933  11.37467  54.50458
      11   8.59076  53.45704         18.80694  11.124100  11.37467  54.50458   5.85535  53.41933   5.80687  52.40948  11.32618  53.49474
      11   8.54230  52.44678         18.82141  11.124100  11.32618  53.49474   5.80687  52.40948   5.75843  51.39880  11.27775  52.48406
      11   8.49388  51.43568         18.83589  11.124100  11.27775  52.48406   5.75843  51.39880   5.71004  50.38729  11.22935  51.47255
      11   8.44551  50.42376         18.85039  11.124100  11.22935  51.47255   5.71004  50.38729   5.66170  49.37495  11.18101  50.46021
      11   8.39719  49.41100         18.86489  11.124100  11.18101  50.46021   5.66170  49.37495   5.61340  48.36178  11.13271  49.44704
      11   8.34892  48.39742         18.87941  11.124100  11.13271  49.44704   5.61340  48.36178   5.56515  47.34778  11.08447  48.43304
      11   8.30070  47.38300         18.89394  11.124100  11.08447  48.43304   5.56515  47.34778   5.51695  46.33294  11.03627  47.41820
      11   8.25252  46.36774         18.90848  11.124100  11.03627  47.41820   5.51695  46.33294   5.46880  45.31727  10.98811  46.40253
      11   8.20439  45.35165         18.92303  11.124100  10.98811  46.40253   5.46880  45.31727   5.42069  44.30077  10.94001  45.38602
      11   8.15631  44.33473         18.93759  11.124100  10.94001  45.38602   5.42069  44.30077   5.37264  43.28342  10.89195  44.36868
      11   8.10828  43.31697         18.95216  11.124100  10.89195  44.36868   5.37264  43.28342   5.32463  42.26525  10.84395  43.35050
      11   8.06030  42.29837         18.96675  11.124100  10.84395  43.35050   5.32463  42.26525   5.27667  41.24623  10.79599  42.33149
      11   8.01236  41.27894         18.98134  11.124100  10.79599  42.33149   5.27667  41.24623   5.22876  40.22638  10.74808  41.31164
      11   7.96448  40.25867         18.99595  11.124100  10.74808  41.31164   5.22876  40.22638   5.18090  39.20569  10.70022  40.29095
      11   7.91664  39.23756         19.01057  11.124100  10.70022  40.29095   5.18090  39.20569   5.13309  38.18416  10.65240  39.26941
      11   7.86885  38.21561         19.02520  11.124100  10.65240  39.26941   5.13309  38.18416   5.08533  37.16179  10.60464  38.24704
      11   7.82112  37.19282         19.03984  11.124100  10.60464  38.24704   5.08533  37.16179   5.03761  36.13858  10.55693  37.22383
      11   7.77343  36.16918         19.05449  11.124100  10.55693  37.22383   5.03761  36.13858   4.98995  35.11452  10.50927  36.19978
      11   7.72579  35.14471         19.06915  11.124100  10.50927  36.19978   4.98995  35.11452   4.94234  34.08963  10.46165  35.17489
      11   7.67820  34.11939         19.08382  11.124100  10.46165  35.17489   4.94234  34.08963   4.89477  33.06389  10.41409  34.14915
      11   7.63066  33.09324         19.09851  11.124100  10.41409  34.14915   4.89477  33.06389   4.84726  32.03731  10.36658  33.12257
      11   7.58318  32.06623         19.11321  11.124100  10.36658  33.12257   4.84726  32.03731   4.79980  31.00988  10.31911  32.09514
      11   7.53574  31.03838         19.12792  11.124100  10.31911  32.09514   4.79980  31.00988   4.75239  29.98161  10.27170  31.06687
      11   7.48835  30.00969         19.14263  11.124100  10.27170  31.06687   4.75239  29.98161   4.70503  28.95250  10.22434  30.03775
      11   7.44102  28.98015         19.15737  11.124100  10.22434  30.03775   4.70503  28.95250   4.65771  27.92253  10.17703  29.00779
      11   7.39373  27.94976         19.17211  11.124100  10.17703  29.00779   4.65771  27.92253   4.61046  26.89172  10.12977  27.97698
      11   7.34650  26.91853         19.18686  11.124100  10.12977  27.97698   4.61046  26.89172   4.56325  25.86006  10.08256  26.94532
      11   7.29932  25.88645         19.20163  11.124100  10.08256  26.94532   4.56325  25.86006   4.51609  24.82756  10.03541  25.91281
      11   7.25219  24.85351         19.21640  11.124100  10.03541  25.91281   4.51609  24.82756   4.46899  23.79420   9.98830  24.87946
      11   7.20511  23.81973         19.23119  11.124100   9.98830  24.87946   4.46899  23.79420   4.42193  22.75999   9.94125  23.84525
      11   7.15808  22.78510         19.24599  11.124100   9.94125  23.84525   4.42193  22.75999   4.37493  21.72494   9.89425  22.81019
      11   7.11110  21.74962         19.26080  11.124100   9.89425  22.81019   4.37493  21.72494   4.32798  20.68903   9.84730  21.77428
      11   7.06418  20.71328         19.27562  11.124100   9.84730  21.77428   4.32798  20.68903   4.28109  19.65226   9.80040  20.73752
      11   7.01731  19.67609         19.29045  11.124100   9.80040  20.73752   4.28109  19.65226   4.23424  18.61465   9.75356  19.69991
      11   6.97049  18.63805         19.30530  11.124100   9.75356  19.69991   4.23424  18.61465   4.18745  17.57618   9.70677  18.66144
      11   6.92373  17.59915         19.32015  11.124100   9.70677  18.66144   4.18745  17.57618   4.14071  16.53686   9.66003  17.62211
      11   6.87701  16.55940         19.33502  11.124100   9.66003  17.62211   4.14071  16.53686   4.09403  15.49668   9.61334  16.58193
      11   6.83036  15.51879         19.34990  11.124100   9.61334  16.58193   4.09403  15.49668   4.04739  14.45564   9.56671  15.54090
      11   6.78375  14.47733         19.36479  11.124100   9.56671  15.54090   4.04739  14.45564   4.00081  13.41375   9.52013  14.49901
      11   6.73720  13.43501         19.37969  11.124100   9.52013  14.49901   4.00081  13.41375   3.95429  12.37100   9.47360  13.45626
      11   6.69070  12.39183         19.39461  11.124100   9.47360  13.45626   3.95429  12.37100   3.90782  11.32739   9.42713  12.41265
      11   6.64425  11.34779         19.40953  11.124100   9.42713  12.41265   3.90782  11.32739   3.86140  10.28292   9.38071  11.36818
      11   6.59786  10.30289         19.42447  11.124100   9.38071  11.36818   3.86140  10.28292   3.81503   9.23759   9.33435  10.32285
      11   6.55153   9.25714         19.43941  11.124100   9.33435  10.32285   3.81503   9.23759   3.76872   8.19141   9.28804   9.27666
      11   6.50524   8.21052         19.45437  11.124100   9.28804   9.27666   3.76872   8.19141   3.72247   7.14436   9.24178   8.22961
      11   6.45902   7.16304         19.46934  11.124100   9.24178   8.22961   3.72247   7.14436   3.67627   6.09644   9.19558   7.18170
      11   6.41284   6.11469         19.48433  11.124100   9.19558   7.18170   3.67627   6.09644   3.63012   5.04767   9.14944   6.13293
      11   6.36672   5.06549         19.49932  11.124100   9.14944   6.13293   3.63012   5.04767   3.58403   3.99803   9.10335   5.08329
      11   6.32066   4.01542         19.51432  11.124100   9.10335   5.08329   3.58403   3.99803   3.53800   2.94753   9.05731   4.03279
      11   6.27465   2.96448         19.52934  11.124100   9.05731   4.03279   3.53800   2.94753   3.49202   1.89616   9.01133   2.98142
      11   6.22870   1.91268         19.54437  11.124100   9.01133   2.98142   3.49202   1.89616   3.44609   0.84393   8.96541   1.92918
      11   6.18280   0.86001         19.55941  11.124100   8.96541   1.92918   3.44609   0.84393   3.40022  -0.20917   8.91954   0.87608
