\wavsamp version 5.1 (Wed Apr 20 08:45:04 PDT 2005)
\processing time 13:47:36 PST 11/02/2007
\character channelID = 1
| order |x_center |y_center |   wavelength   |  angle   |   x0    |   y0    |   x1    |   y1    |   x2    |   y2    |   x3    |   y3    |
| int   |  real   |  real   |    real        |   real   |  real   |  real   |  real   |  real   |  real   |  real   |  real   |  real   |
      20 120.47475 127.95780          9.86350   0.592061 123.27955 128.45457 117.65485 128.39652 117.66996 127.46093 123.29466 127.51912
      20 120.48989 127.02185          9.87109   0.593500 123.29466 127.51912 117.66996 127.46093 117.68514 126.52447 123.30983 126.58281
      20 120.50510 126.08503          9.87869   0.594940 123.30983 126.58281 117.68514 126.52447 117.70039 125.58715 123.32508 125.64562
      20 120.52039 125.14734          9.88629   0.596383 123.32508 125.64562 117.70039 125.58715 117.71571 124.64896 123.34040 124.70758
      20 120.53574 124.20879          9.89390   0.597828 123.34040 124.70758 117.71571 124.64896 117.73110 123.70990 123.35579 123.76866
      20 120.55117 123.26937          9.90151   0.599276 123.35579 123.76866 117.73110 123.70990 117.74656 122.76997 123.37125 122.82888
      20 120.56667 122.32908          9.90913   0.600725 123.37125 122.82888 117.74656 122.76997 117.76210 121.82918 123.38679 121.88822
      20 120.58224 121.38792          9.91675   0.602176 123.38679 121.88822 117.76210 121.82918 117.77770 120.88751 123.40239 120.94670
      20 120.59788 120.44589          9.92439   0.603629 123.40239 120.94670 117.77770 120.88751 117.79338 119.94497 123.41806 120.00430
      20 120.61359 119.50299          9.93202   0.605085 123.41806 120.00430 117.79338 119.94497 117.80912 119.00156 123.43381 119.06104
      20 120.62937 118.55921          9.93967   0.606542 123.43381 119.06104 117.80912 119.00156 117.82494 118.05728 123.44963 118.11690
      20 120.64522 117.61456          9.94731   0.608002 123.44963 118.11690 117.82494 118.05728 117.84084 117.11212 123.46552 117.17188
      20 120.66115 116.66904          9.95497   0.609463 123.46552 117.17188 117.84084 117.11212 117.85680 116.16609 123.48148 116.22600
      20 120.67715 115.72264          9.96263   0.610927 123.48148 116.22600 117.85680 116.16609 117.87284 115.21918 123.49752 115.27923
      20 120.69322 114.77537          9.97030   0.612393 123.49752 115.27923 117.87284 115.21918 117.88895 114.27140 123.51362 114.33159
      20 120.70937 113.82722          9.97797   0.613861 123.51362 114.33159 117.88895 114.27140 117.90513 113.32274 123.52980 113.38308
      20 120.72558 112.87819          9.98565   0.615331 123.52980 113.38308 117.90513 113.32274 117.92138 112.37320 123.54605 112.43368
      20 120.74187 111.92828          9.99333   0.616803 123.54605 112.43368 117.92138 112.37320 117.93771 111.42278 123.56238 111.48341
      20 120.75823 110.97750         10.00102   0.618277 123.56238 111.48341 117.93771 111.42278 117.95411 110.47148 123.57878 110.53225
      20 120.77467 110.02583         10.00872   0.619754 123.57878 110.53225 117.95411 110.47148 117.97058 109.51930 123.59525 109.58022
      20 120.79118 109.07328         10.01642   0.621232 123.59525 109.58022 117.97058 109.51930 117.98712 108.56624 123.61179 108.62730
      20 120.80776 108.11985         10.02413   0.622713 123.61179 108.62730 117.98712 108.56624 118.00374 107.61229 123.62841 107.67350
      20 120.82441 107.16554         10.03184   0.624196 123.62841 107.67350 118.00374 107.61229 118.02044 106.65746 123.64510 106.71881
      20 120.84114 106.21034         10.03956   0.625681 123.64510 106.71881 118.02044 106.65746 118.03720 105.70175 123.66187 105.76325
      20 120.85795 105.25425         10.04729   0.627168 123.66187 105.76325 118.03720 105.70175 118.05404 104.74515 123.67870 104.80679
      20 120.87482 104.29728         10.05502   0.628657 123.67870 104.80679 118.05404 104.74515 118.07096 103.78766 123.69562 103.84945
      20 120.89177 103.33942         10.06276   0.630148 123.69562 103.84945 118.07096 103.78766 118.08795 102.82929 123.71260 102.89122
      20 120.90880 102.38068         10.07050   0.631642 123.71260 102.89122 118.08795 102.82929 118.10501 101.87002 123.72967 101.93211
      20 120.92590 101.42105         10.07825   0.633137 123.72967 101.93211 118.10501 101.87002 118.12215 100.90987 123.74680 100.97210
      20 120.94307 100.46052         10.08600   0.634635 123.74680 100.97210 118.12215 100.90987 118.13936  99.94883 123.76401 100.01121
      20 120.96032  99.49911         10.09377   0.636135 123.76401 100.01121 118.13936  99.94883 118.15664  98.98690 123.78130  99.04942
      20 120.97764  98.53680         10.10153   0.637637 123.78130  99.04942 118.15664  98.98690 118.17401  98.02407 123.79866  98.08674
      20 120.99504  97.57360         10.10931   0.639141 123.79866  98.08674 118.17401  98.02407 118.19144  97.06035 123.81609  97.12317
      20 121.01251  96.60951         10.11709   0.640647 123.81609  97.12317 118.19144  97.06035 118.20895  96.09574 123.83360  96.15871
      20 121.03006  95.64453         10.12487   0.642156 123.83360  96.15871 118.20895  96.09574 118.22654  95.13023 123.85119  95.19335
      20 121.04769  94.67865         10.13266   0.643667 123.85119  95.19335 118.22654  95.13023 118.24420  94.16383 123.86885  94.22709
      20 121.06539  93.71187         10.14046   0.645180 123.86885  94.22709 118.24420  94.16383 118.26194  93.19653 123.88658  93.25994
      20 121.08316  92.74419         10.14826   0.646695 123.88658  93.25994 118.26194  93.19653 118.27976  92.22833 123.90440  92.29189
      20 121.10101  91.77562         10.15607   0.648212 123.90440  92.29189 118.27976  92.22833 118.29765  91.25924 123.92229  91.32295
      20 121.11894  90.80615         10.16389   0.649731 123.92229  91.32295 118.29765  91.25924 118.31561  90.28924 123.94025  90.35310
      20 121.13694  89.83578         10.17171   0.651253 123.94025  90.35310 118.31561  90.28924 118.33366  89.31834 123.95829  89.38235
      20 121.15502  88.86451         10.17954   0.652777 123.95829  89.38235 118.33366  89.31834 118.35177  88.34655 123.97641  88.41071
      20 121.17318  87.89233         10.18737   0.654303 123.97641  88.41071 118.35177  88.34655 118.36997  87.37385 123.99460  87.43816
      20 121.19141  86.91926         10.19521   0.655831 123.99460  87.43816 118.36997  87.37385 118.38824  86.40024 124.01287  86.46470
      20 121.20972  85.94528         10.20306   0.657361 124.01287  86.46470 118.38824  86.40024 118.40659  85.42574 124.03122  85.49035
      20 121.22811  84.97039         10.21091   0.658894 124.03122  85.49035 118.40659  85.42574 118.42502  84.45032 124.04965  84.51508
      20 121.24658  83.99460         10.21876   0.660429 124.04965  84.51508 118.42502  84.45032 118.44352  83.47401 124.06815  83.53892
      20 121.26512  83.01791         10.22663   0.661966 124.06815  83.53892 118.44352  83.47401 118.46210  82.49678 124.08673  82.56184
      20 121.28374  82.04030         10.23450   0.663505 124.08673  82.56184 118.46210  82.49678 118.48076  81.51865 124.10538  81.58386
      20 121.30243  81.06179         10.24237   0.665047 124.10538  81.58386 118.48076  81.51865 118.49950  80.53960 124.12412  80.60497
      20 121.32121  80.08237         10.25026   0.666591 124.12412  80.60497 118.49950  80.53960 118.51831  79.55965 124.14293  79.62517
      20 121.34006  79.10204         10.25814   0.668136 124.14293  79.62517 118.51831  79.55965 118.53721  78.57879 124.16182  78.64446
      20 121.35899  78.12079         10.26604   0.669685 124.16182  78.64446 118.53721  78.57879 118.55618  77.59702 124.18079  77.66284
      20 121.37800  77.13864         10.27394   0.671235 124.18079  77.66284 118.55618  77.59702 118.57522  76.61433 124.19984  76.68030
      20 121.39709  76.15557         10.28184   0.672788 124.19984  76.68030 118.57522  76.61433 118.59435  75.63073 124.21896  75.69685
      20 121.41625  75.17159         10.28976   0.674343 124.21896  75.69685 118.59435  75.63073 118.61356  74.64621 124.23817  74.71249
      20 121.43550  74.18670         10.29767   0.675900 124.23817  74.71249 118.61356  74.64621 118.63284  73.66078 124.25745  73.72721
      20 121.45482  73.20088         10.30560   0.677459 124.25745  73.72721 118.63284  73.66078 118.65221  72.67444 124.27681  72.74102
      20 121.47422  72.21415         10.31353   0.679021 124.27681  72.74102 118.65221  72.67444 118.67165  71.68717 124.29625  71.75391
      20 121.49370  71.22651         10.32146   0.680585 124.29625  71.75391 118.67165  71.68717 118.69117  70.69899 124.31577  70.76588
      20 121.51326  70.23794         10.32941   0.682151 124.31577  70.76588 118.69117  70.69899 118.71077  69.70989 124.33537  69.77693
      20 121.53290  69.24846         10.33736   0.683720 124.33537  69.77693 118.71077  69.70989 118.73045  68.71987 124.35505  68.78707
      20 121.55262  68.25805         10.34531   0.685290 124.35505  68.78707 118.73045  68.71987 118.75021  67.72892 124.37481  67.79628
      20 121.57242  67.26673         10.35327   0.686863 124.37481  67.79628 118.75021  67.72892 118.77006  66.73706 124.39465  66.80457
      20 121.59230  66.27448         10.36124   0.688439 124.39465  66.80457 118.77006  66.73706 118.78998  65.74427 124.41457  65.81193
      20 121.61227  65.28130         10.36921   0.690016 124.41457  65.81193 118.78998  65.74427 118.80998  64.75056 124.43457  64.81837
      20 121.63231  64.28721         10.37719   0.691596 124.43457  64.81837 118.80998  64.75056 118.83006  63.75592 124.45465  63.82389
      20 121.65243  63.29218         10.38518   0.693178 124.45465  63.82389 118.83006  63.75592 118.85022  62.76036 124.47481  62.82848
      20 121.67263  62.29623         10.39317   0.694763 124.47481  62.82848 118.85022  62.76036 118.87046  61.76387 124.49505  61.83215
      20 121.69291  61.29936         10.40117   0.696349 124.49505  61.83215 118.87046  61.76387 118.89079  60.76645 124.51537  60.83489
      20 121.71327  60.30155         10.40917   0.697938 124.51537  60.83489 118.89079  60.76645 118.91119  59.76810 124.53578  59.83670
      20 121.73372  59.30282         10.41718   0.699530 124.53578  59.83670 118.91119  59.76810 118.93168  58.76882 124.55626  58.83758
      20 121.75424  58.30316         10.42520   0.701123 124.55626  58.83758 118.93168  58.76882 118.95225  57.76862 124.57683  57.83753
      20 121.77485  57.30256         10.43322   0.702719 124.57683  57.83753 118.95225  57.76862 118.97290  56.76748 124.59747  56.83654
      20 121.79554  56.30104         10.44125   0.704318 124.59747  56.83654 118.97290  56.76748 118.99363  55.76541 124.61820  55.83463
      20 121.81631  55.29858         10.44928   0.705918 124.61820  55.83463 118.99363  55.76541 119.01444  54.76240 124.63901  54.83178
      20 121.83716  54.29518         10.45732   0.707521 124.63901  54.83178 119.01444  54.76240 119.03533  53.75846 124.65990  53.82800
      20 121.85810  53.29085         10.46537   0.709127 124.65990  53.82800 119.03533  53.75846 119.05631  52.75359 124.68088  52.82328
      20 121.87912  52.28559         10.47342   0.710734 124.68088  52.82328 119.05631  52.75359 119.07737  51.74777 124.70194  51.81763
      20 121.90022  51.27939         10.48148   0.712344 124.70194  51.81763 119.07737  51.74777 119.09851  50.74102 124.72308  50.81104
      20 121.92140  50.27225         10.48955   0.713956 124.72308  50.81104 119.09851  50.74102 119.11974  49.73334 124.74430  49.80351
      20 121.94266  49.26417         10.49762   0.715571 124.74430  49.80351 119.11974  49.73334 119.14104  48.72471 124.76561  48.79504
      20 121.96401  48.25515         10.50570   0.717188 124.76561  48.79504 119.14104  48.72471 119.16244  47.71514 124.78699  47.78563
      20 121.98544  47.24519         10.51378   0.718807 124.78699  47.78563 119.16244  47.71514 119.18391  46.70463 124.80847  46.77528
      20 122.00696  46.23429         10.52188   0.720429 124.80847  46.77528 119.18391  46.70463 119.20547  45.69318 124.83002  45.76398
      20 122.02855  45.22244         10.52997   0.722053 124.83002  45.76398 119.20547  45.69318 119.22711  44.68078 124.85166  44.75175
      20 122.05024  44.20966         10.53808   0.723679 124.85166  44.75175 119.22711  44.68078 119.24883  43.66744 124.87338  43.73857
      20 122.07200  43.19592         10.54618   0.725308 124.87338  43.73857 119.24883  43.66744 119.27064  42.65316 124.89519  42.72444
      20 122.09385  42.18125         10.55430   0.726939 124.89519  42.72444 119.27064  42.65316 119.29253  41.63793 124.91708  41.70937
      20 122.11578  41.16562         10.56242   0.728573 124.91708  41.70937 119.29253  41.63793 119.31451  40.62175 124.93905  40.69335
      20 122.13780  40.14905         10.57055   0.730209 124.93905  40.69335 119.31451  40.62175 119.33657  39.60462 124.96111  39.67639
      20 122.15990  39.13153         10.57868   0.731847 124.96111  39.67639 119.33657  39.60462 119.35871  38.58655 124.98325  38.65847
      20 122.18209  38.11306         10.58683   0.733488 124.98325  38.65847 119.35871  38.58655 119.38094  37.56752 125.00548  37.63961
      20 122.20436  37.09364         10.59497   0.735131 125.00548  37.63961 119.38094  37.56752 119.40326  36.54754 125.02780  36.61979
      20 122.22672  36.07326         10.60313   0.736776 125.02780  36.61979 119.40326  36.54754 119.42566  35.52661 125.05019  35.59902
      20 122.24916  35.05194         10.61128   0.738424 125.05019  35.59902 119.42566  35.52661 119.44814  34.50473 125.07268  34.57730
      20 122.27169  34.02966         10.61945   0.740074 125.07268  34.57730 119.44814  34.50473 119.47072  33.48189 125.09525  33.55463
      20 122.29430  33.00642         10.62762   0.741727 125.09525  33.55463 119.47072  33.48189 119.49337  32.45810 125.11790  32.53100
      20 122.31700  31.98223         10.63580   0.743382 125.11790  32.53100 119.49337  32.45810 119.51611  31.43335 125.14064  31.50641
      20 122.33978  30.95709         10.64398   0.745039 125.14064  31.50641 119.51611  31.43335 119.53894  30.40764 125.16347  30.48087
      20 122.36265  29.93099         10.65218   0.746699 125.16347  30.48087 119.53894  30.40764 119.56186  29.38098 125.18638  29.45437
      20 122.38561  28.90392         10.66037   0.748362 125.18638  29.45437 119.56186  29.38098 119.58486  28.35336 125.20938  28.42691
      20 122.40865  27.87590         10.66858   0.750026 125.20938  28.42691 119.58486  28.35336 119.60794  27.32477 125.23246  27.39849
      20 122.43178  26.84692         10.67679   0.751694 125.23246  27.39849 119.60794  27.32477 119.63112  26.29523 125.25563  26.36910
      20 122.45499  25.81697         10.68500   0.753363 125.25563  26.36910 119.63112  26.29523 119.65438  25.26472 125.27889  25.33876
      20 122.47830  24.78607         10.69322   0.755035 125.27889  25.33876 119.65438  25.26472 119.67772  24.23325 125.30223  24.30746
      20 122.50169  23.75420         10.70145   0.756710 125.30223  24.30746 119.67772  24.23325 119.70116  23.20082 125.32567  23.27519
      19 113.40719 127.89107         10.37719   0.800553 116.21407 128.39817 110.58962 128.31966 110.60034 127.38385 116.22479 127.46252
      19 113.41795 126.95490         10.38518   0.802212 116.22479 127.46252 110.60034 127.38385 110.61112 126.44716 116.23557 126.52600
      19 113.42877 126.01786         10.39317   0.803872 116.23557 126.52600 110.61112 126.44716 110.62198 125.50961 116.24642 125.58861
      19 113.43965 125.07996         10.40117   0.805534 116.24642 125.58861 110.62198 125.50961 110.63290 124.57119 116.25734 124.65036
      19 113.45061 124.14119         10.40917   0.807198 116.25734 124.65036 110.63290 124.57119 110.64389 123.63191 116.26833 123.71123
      19 113.46163 123.20155         10.41718   0.808864 116.26833 123.71123 110.64389 123.63191 110.65495 122.69175 116.27939 122.77124
      19 113.47273 122.26104         10.42520   0.810532 116.27939 122.77124 110.65495 122.69175 110.66608 121.75072 116.29051 121.83037
      19 113.48389 121.31966         10.43322   0.812202 116.29051 121.83037 110.66608 121.75072 110.67727 120.80882 116.30171 120.88864
      19 113.49512 120.37741         10.44125   0.813873 116.30171 120.88864 110.67727 120.80882 110.68854 119.86605 116.31297 119.94603
      19 113.50642 119.43428         10.44928   0.815547 116.31297 119.94603 110.68854 119.86605 110.69987 118.92241 116.32430 119.00255
      19 113.51778 118.49028         10.45732   0.817222 116.32430 119.00255 110.69987 118.92241 110.71128 117.97789 116.33571 118.05820
      19 113.52922 117.54541         10.46537   0.818900 116.33571 118.05820 110.71128 117.97789 110.72275 117.03249 116.34718 117.11297
      19 113.54073 116.59966         10.47342   0.820579 116.34718 117.11297 110.72275 117.03249 110.73429 116.08623 116.35872 116.16687
      19 113.55230 115.65303         10.48148   0.822260 116.35872 116.16687 110.73429 116.08623 110.74591 115.13908 116.37033 115.21988
      19 113.56395 114.70553         10.48955   0.823943 116.37033 115.21988 110.74591 115.13908 110.75759 114.19105 116.38200 114.27202
      19 113.57566 113.75715         10.49762   0.825628 116.38200 114.27202 110.75759 114.19105 110.76934 113.24215 116.39375 113.32329
      19 113.58745 112.80789         10.50570   0.827314 116.39375 113.32329 110.76934 113.24215 110.78116 112.29237 116.40557 112.37367
      19 113.59930 111.85775         10.51378   0.829003 116.40557 112.37367 110.78116 112.29237 110.79305 111.34171 116.41746 111.42317
      19 113.61123 110.90673         10.52188   0.830694 116.41746 111.42317 110.79305 111.34171 110.80501 110.39016 116.42942 110.47180
      19 113.62322 109.95483         10.52997   0.832386 116.42942 110.47180 110.80501 110.39016 110.81705 109.43774 116.44145 109.51954
      19 113.63529 109.00204         10.53808   0.834080 116.44145 109.51954 110.81705 109.43774 110.82915 108.48443 116.45355 108.56639
      19 113.64743 108.04837         10.54618   0.835777 116.45355 108.56639 110.82915 108.48443 110.84132 107.53023 116.46572 107.61237
      19 113.65964 107.09382         10.55430   0.837475 116.46572 107.61237 110.84132 107.53023 110.85357 106.57515 116.47796 106.65745
      19 113.67191 106.13838         10.56242   0.839175 116.47796 106.65745 110.85357 106.57515 110.86588 105.61919 116.49028 105.70166
      19 113.68426 105.18206         10.57055   0.840877 116.49028 105.70166 110.86588 105.61919 110.87827 104.66234 116.50266 104.74497
      19 113.69669 104.22485         10.57868   0.842581 116.50266 104.74497 110.87827 104.66234 110.89073 103.70460 116.51512 103.78740
      19 113.70918 103.26675         10.58683   0.844287 116.51512 103.78740 110.89073 103.70460 110.90326 102.74597 116.52764 102.82894
      19 113.72174 102.30776         10.59497   0.845995 116.52764 102.82894 110.90326 102.74597 110.91586 101.78645 116.54024 101.86959
      19 113.73438 101.34788         10.60313   0.847704 116.54024 101.86959 110.91586 101.78645 110.92853 100.82605 116.55291 100.90935
      19 113.74709 100.38711         10.61128   0.849416 116.55291 100.90935 110.92853 100.82605 110.94128  99.86475 116.56566  99.94822
      19 113.75987  99.42545         10.61945   0.851130 116.56566  99.94822 110.94128  99.86475 110.95409  98.90256 116.57847  98.98620
      19 113.77272  98.46289         10.62762   0.852845 116.57847  98.98620 110.95409  98.90256 110.96698  97.93947 116.59136  98.02328
      19 113.78564  97.49945         10.63580   0.854563 116.59136  98.02328 110.96698  97.93947 110.97994  96.97549 116.60432  97.05947
      19 113.79864  96.53510         10.64398   0.856282 116.60432  97.05947 110.97994  96.97549 110.99298  96.01062 116.61735  96.09476
      19 113.81171  95.56987         10.65218   0.858003 116.61735  96.09476 110.99298  96.01062 111.00609  95.04485 116.63045  95.12916
      19 113.82485  94.60373         10.66037   0.859727 116.63045  95.12916 111.00609  95.04485 111.01926  94.07818 116.64363  94.16267
      19 113.83807  93.63670         10.66858   0.861452 116.64363  94.16267 111.01926  94.07818 111.03252  93.11062 116.65688  93.19527
      19 113.85135  92.66877         10.67679   0.863179 116.65688  93.19527 111.03252  93.11062 111.04584  92.14215 116.67020  92.22698
      19 113.86471  91.69994         10.68500   0.864908 116.67020  92.22698 111.04584  92.14215 111.05924  91.17279 116.68360  91.25778
      19 113.87815  90.73021         10.69322   0.866640 116.68360  91.25778 111.05924  91.17279 111.07272  90.20252 116.69707  90.28769
      19 113.89166  89.75958         10.70145   0.868373 116.69707  90.28769 111.07272  90.20252 111.08626  89.23136 116.71061  89.31669
      19 113.90524  88.78805         10.70969   0.870108 116.71061  89.31669 111.08626  89.23136 111.09988  88.25929 116.72423  88.34479
      19 113.91890  87.81562         10.71793   0.871845 116.72423  88.34479 111.09988  88.25929 111.11358  87.28632 116.73792  87.37199
      19 113.93263  86.84228         10.72618   0.873584 116.73792  87.37199 111.11358  87.28632 111.12734  86.31244 116.75169  86.39829
      19 113.94643  85.86804         10.73443   0.875325 116.75169  86.39829 111.12734  86.31244 111.14119  85.33766 116.76553  85.42368
      19 113.96031  84.89289         10.74269   0.877068 116.76553  85.42368 111.14119  85.33766 111.15510  84.36197 116.77944  84.44816
      19 113.97426  83.91683         10.75096   0.878813 116.77944  84.44816 111.15510  84.36197 111.16909  83.38538 116.79343  83.47174
      19 113.98829  82.93987         10.75923   0.880560 116.79343  83.47174 111.16909  83.38538 111.18316  82.40787 116.80750  82.49441
      19 114.00239  81.96200         10.76751   0.882308 116.80750  82.49441 111.18316  82.40787 111.19730  81.42946 116.82163  81.51616
      19 114.01657  80.98321         10.77580   0.884059 116.82163  81.51616 111.19730  81.42946 111.21152  80.45014 116.83585  80.53701
      19 114.03082  80.00352         10.78409   0.885812 116.83585  80.53701 111.21152  80.45014 111.22581  79.46991 116.85014  79.55695
      19 114.04515  79.02292         10.79239   0.887567 116.85014  79.55695 111.22581  79.46991 111.24018  78.48876 116.86450  78.57598
      19 114.05955  78.04140         10.80069   0.889324 116.86450  78.57598 111.24018  78.48876 111.25462  77.50670 116.87894  77.59409
      19 114.07403  77.05898         10.80900   0.891083 116.87894  77.59409 111.25462  77.50670 111.26913  76.52373 116.89345  76.61130
      19 114.08858  76.07563         10.81732   0.892844 116.89345  76.61130 111.26913  76.52373 111.28373  75.53984 116.90804  75.62758
      19 114.10321  75.09138         10.82565   0.894606 116.90804  75.62758 111.28373  75.53984 111.29840  74.55504 116.92271  74.64295
      19 114.11792  74.10620         10.83398   0.896371 116.92271  74.64295 111.29840  74.55504 111.31314  73.56932 116.93745  73.65741
      19 114.13270  73.12011         10.84231   0.898138 116.93745  73.65741 111.31314  73.56932 111.32796  72.58269 116.95227  72.67094
      19 114.14756  72.13310         10.85066   0.899907 116.95227  72.67094 111.32796  72.58269 111.34286  71.59513 116.96717  71.68356
      19 114.16249  71.14517         10.85901   0.901678 116.96717  71.68356 111.34286  71.59513 111.35784  70.60666 116.98214  70.69526
      19 114.17750  70.15633         10.86736   0.903451 116.98214  70.69526 111.35784  70.60666 111.37289  69.61726 116.99719  69.70604
      19 114.19259  69.16656         10.87573   0.905226 116.99719  69.70604 111.37289  69.61726 111.38802  68.62695 117.01231  68.71590
      19 114.20776  68.17587         10.88410   0.907003 117.01231  68.71590 111.38802  68.62695 111.40322  67.63571 117.02752  67.72484
      19 114.22300  67.18425         10.89247   0.908782 117.02752  67.72484 111.40322  67.63571 111.41850  66.64354 117.04280  66.73285
      19 114.23832  66.19172         10.90085   0.910563 117.04280  66.73285 111.41850  66.64354 111.43387  65.65046 117.05815  65.73994
      19 114.25372  65.19826         10.90924   0.912346 117.05815  65.73994 111.43387  65.65046 111.44930  64.65645 117.07359  64.74610
      19 114.26919  64.20387         10.91764   0.914131 117.07359  64.74610 111.44930  64.65645 111.46482  63.66151 117.08910  63.75134
      19 114.28475  63.20855         10.92604   0.915918 117.08910  63.75134 111.46482  63.66151 111.48041  62.66564 117.10469  62.75565
      19 114.30038  62.21231         10.93445   0.917707 117.10469  62.75565 111.48041  62.66564 111.49608  61.66885 117.12036  61.75903
      19 114.31609  61.21514         10.94286   0.919498 117.12036  61.75903 111.49608  61.66885 111.51183  60.67113 117.13611  60.76148
      19 114.33187  60.21704         10.95128   0.921291 117.13611  60.76148 111.51183  60.67113 111.52766  59.67248 117.15193  59.76301
      19 114.34774  59.21802         10.95971   0.923087 117.15193  59.76301 111.52766  59.67248 111.54357  58.67289 117.16783  58.76360
      19 114.36368  58.21805         10.96814   0.924884 117.16783  58.76360 111.54357  58.67289 111.55955  57.67238 117.18382  57.76326
      19 114.37971  57.21716         10.97658   0.926683 117.18382  57.76326 111.55955  57.67238 111.57561  56.67093 117.19988  56.76199
      19 114.39581  56.21533         10.98503   0.928485 117.19988  56.76199 111.57561  56.67093 111.59176  55.66855 117.21602  55.75979
      19 114.41199  55.21257         10.99348   0.930288 117.21602  55.75979 111.59176  55.66855 111.60798  54.66523 117.23224  54.75665
      19 114.42825  54.20888         11.00194   0.932094 117.23224  54.75665 111.60798  54.66523 111.62428  53.66098 117.24854  53.75257
      19 114.44459  53.20424         11.01041   0.933901 117.24854  53.75257 111.62428  53.66098 111.64066  52.65579 117.26491  52.74756
      19 114.46101  52.19867         11.01888   0.935711 117.26491  52.74756 111.64066  52.65579 111.65712  51.64966 117.28137  51.74161
      19 114.47751  51.19217         11.02736   0.937523 117.28137  51.74161 111.65712  51.64966 111.67366  50.64259 117.29791  50.73472
      19 114.49409  50.18472         11.03585   0.939336 117.29791  50.73472 111.67366  50.64259 111.69028  49.63459 117.31453  49.72689
      19 114.51075  49.17633         11.04434   0.941152 117.31453  49.72689 111.69028  49.63459 111.70698  48.62564 117.33122  48.71812
      19 114.52748  48.16700         11.05284   0.942970 117.33122  48.71812 111.70698  48.62564 111.72376  47.61575 117.34800  47.70841
      19 114.54430  47.15673         11.06134   0.944790 117.34800  47.70841 111.72376  47.61575 111.74063  46.60492 117.36486  46.69776
      19 114.56120  46.14552         11.06986   0.946612 117.36486  46.69776 111.74063  46.60492 111.75757  45.59315 117.38180  45.68617
      19 114.57819  45.13336         11.07837   0.948436 117.38180  45.68617 111.75757  45.59315 111.77459  44.58043 117.39882  44.67363
      19 114.59525  44.12026         11.08690   0.950263 117.39882  44.67363 111.77459  44.58043 111.79169  43.56676 117.41592  43.66014
      19 114.61239  43.10621         11.09543   0.952091 117.41592  43.66014 111.79169  43.56676 111.80888  42.55215 117.43310  42.64571
      19 114.62961  42.09122         11.10397   0.953922 117.43310  42.64571 111.80888  42.55215 111.82615  41.53659 117.45036  41.63033
      19 114.64692  41.07527         11.11251   0.955754 117.45036  41.63033 111.82615  41.53659 111.84349  40.52008 117.46771  40.61400
      19 114.66431  40.05838         11.12107   0.957589 117.46771  40.61400 111.84349  40.52008 111.86092  39.50263 117.48514  39.59672
      19 114.68178  39.04054         11.12962   0.959426 117.48514  39.59672 111.86092  39.50263 111.87843  38.48422 117.50264  38.57850
      19 114.69933  38.02174         11.13819   0.961264 117.50264  38.57850 111.87843  38.48422 111.89603  37.46486 117.52023  37.55932
      19 114.71696  37.00200         11.14676   0.963105 117.52023  37.55932 111.89603  37.46486 111.91370  36.44455 117.53791  36.53919
      19 114.73467  35.98130         11.15534   0.964948 117.53791  36.53919 111.91370  36.44455 111.93146  35.42328 117.55566  35.51810
      19 114.75247  34.95965         11.16392   0.966794 117.55566  35.51810 111.93146  35.42328 111.94930  34.40106 117.57350  34.49606
      19 114.77035  33.93704         11.17251   0.968641 117.57350  34.49606 111.94930  34.40106 111.96722  33.37789 117.59142  33.47307
      19 114.78831  32.91348         11.18111   0.970490 117.59142  33.47307 111.96722  33.37789 111.98523  32.35375 117.60942  32.44912
      19 114.80636  31.88896         11.18971   0.972342 117.60942  32.44912 111.98523  32.35375 112.00332  31.32866 117.62751  31.42421
      19 114.82449  30.86348         11.19832   0.974196 117.62751  31.42421 112.00332  31.32866 112.02149  30.30262 117.64568  30.39834
      19 114.84270  29.83704         11.20694   0.976051 117.64568  30.39834 112.02149  30.30262 112.03975  29.27561 117.66393  29.37152
      19 114.86100  28.80965         11.21557   0.977909 117.66393  29.37152 112.03975  29.27561 112.05808  28.24764 117.68226  28.34373
      19 114.87938  27.78129         11.22420   0.979769 117.68226  28.34373 112.05808  28.24764 112.07651  27.21871 117.70068  27.31498
      19 114.89784  26.75197         11.23283   0.981632 117.70068  27.31498 112.07651  27.21871 112.09501  26.18882 117.71919  26.28528
      19 114.91639  25.72169         11.24148   0.983496 117.71919  26.28528 112.09501  26.18882 112.11360  25.15796 117.73777  25.25460
      19 114.93502  24.69044         11.25013   0.985363 117.73777  25.25460 112.11360  25.15796 112.13228  24.12614 117.75644  24.22297
      19 114.95373  23.65823         11.25879   0.987231 117.75644  24.22297 112.13228  24.12614 112.15104  23.09335 117.77520  23.19036
      19 114.97253  22.62505         11.26745   0.989102 117.77520  23.19036 112.15104  23.09335 112.16988  22.05960 117.79404  22.15679
      19 114.99142  21.59091         11.27612   0.990975 117.79404  22.15679 112.16988  22.05960 112.18881  21.02488 117.81297  21.12226
      19 115.01038  20.55579         11.28480   0.992850 117.81297  21.12226 112.18881  21.02488 112.20782  19.98919 117.83198  20.08675
      19 115.02944  19.51971         11.29348   0.994727 117.83198  20.08675 112.20782  19.98919 112.22692  18.95254 117.85107  19.05028
      18 105.57444 127.34726         10.95128   1.033022 108.38351 127.86611 102.75942 127.76479 102.76538 126.82829 108.38946 126.92979
      18 105.58043 126.41042         10.95971   1.034906 108.38946 126.92979 102.76538 126.82829 102.77140 125.89092 108.39548 125.99261
      18 105.58648 125.47272         10.96814   1.036792 108.39548 125.99261 102.77140 125.89092 102.77749 124.95269 108.40157 125.05456
      18 105.59260 124.53414         10.97658   1.038681 108.40157 125.05456 102.77749 124.95269 102.78364 124.01358 108.40772 124.11564
      18 105.59878 123.59469         10.98503   1.040572 108.40772 124.11564 102.78364 124.01358 102.78986 123.07361 108.41393 123.17585
      18 105.60502 122.65437         10.99348   1.042466 108.41393 123.17585 102.78986 123.07361 102.79614 122.13276 108.42020 122.23519
      18 105.61133 121.71318         11.00194   1.044361 108.42020 122.23519 102.79614 122.13276 102.80248 121.19104 108.42654 121.29366
      18 105.61771 120.77112         11.01041   1.046259 108.42654 121.29366 102.80248 121.19104 102.80889 120.24845 108.43295 120.35125
      18 105.62415 119.82818         11.01888   1.048160 108.43295 120.35125 102.80889 120.24845 102.81536 119.30498 108.43942 119.40797
      18 105.63065 118.88437         11.02736   1.050063 108.43942 119.40797 102.81536 119.30498 102.82190 118.36064 108.44595 118.46381
      18 105.63722 117.93968         11.03585   1.051968 108.44595 118.46381 102.82190 118.36064 102.82850 117.41542 108.45255 117.51878
      18 105.64385 116.99412         11.04434   1.053875 108.45255 117.51878 102.82850 117.41542 102.83517 116.46932 108.45922 116.57287
      18 105.65055 116.04768         11.05284   1.055785 108.45922 116.57287 102.83517 116.46932 102.84190 115.52235 108.46595 115.62609
      18 105.65732 115.10036         11.06134   1.057697 108.46595 115.62609 102.84190 115.52235 102.84870 114.57450 108.47274 114.67842
      18 105.66415 114.15216         11.06986   1.059612 108.47274 114.67842 102.84870 114.57450 102.85557 113.62576 108.47960 113.72988
      18 105.67104 113.20308         11.07837   1.061528 108.47960 113.72988 102.85557 113.62576 102.86250 112.67615 108.48653 112.78045
      18 105.67800 112.25312         11.08690   1.063448 108.48653 112.78045 102.86250 112.67615 102.86949 111.72566 108.49352 111.83015
      18 105.68503 111.30228         11.09543   1.065369 108.49352 111.83015 102.86949 111.72566 102.87655 110.77428 108.50058 110.87896
      18 105.69212 110.35055         11.10397   1.067293 108.50058 110.87896 102.87655 110.77428 102.88368 109.82202 108.50770 109.92689
      18 105.69928 109.39795         11.11251   1.069219 108.50770 109.92689 102.88368 109.82202 102.89088 108.86887 108.51489 108.97393
      18 105.70651 108.44445         11.12107   1.071148 108.51489 108.97393 102.89088 108.86887 102.89814 107.91484 108.52215 108.02009
      18 105.71380 107.49007         11.12962   1.073079 108.52215 108.02009 102.89814 107.91484 102.90546 106.95992 108.52948 107.06536
      18 105.72116 106.53481         11.13819   1.075012 108.52948 107.06536 102.90546 106.95992 102.91286 106.00412 108.53687 106.10975
      18 105.72858 105.57866         11.14676   1.076948 108.53687 106.10975 102.91286 106.00412 102.92032 105.04743 108.54432 105.15325
      18 105.73607 104.62162         11.15534   1.078886 108.54432 105.15325 102.92032 105.04743 102.92784 104.08985 108.55185 104.19586
      18 105.74363 103.66369         11.16392   1.080827 108.55185 104.19586 102.92784 104.08985 102.93544 103.13138 108.55944 103.23758
      18 105.75126 102.70486         11.17251   1.082770 108.55944 103.23758 102.93544 103.13138 102.94310 102.17202 108.56709 102.27841
      18 105.75895 101.74515         11.18111   1.084715 108.56709 102.27841 102.94310 102.17202 102.95083 101.21177 108.57482 101.31835
      18 105.76671 100.78455         11.18971   1.086663 108.57482 101.31835 102.95083 101.21177 102.95863 100.25062 108.58261 100.35739
      18 105.77454  99.82305         11.19832   1.088613 108.58261 100.35739 102.95863 100.25062 102.96649  99.28858 108.59047  99.39554
      18 105.78244  98.86066         11.20694   1.090566 108.59047  99.39554 102.96649  99.28858 102.97442  98.32565 108.59840  98.43280
      18 105.79040  97.89738         11.21557   1.092521 108.59840  98.43280 102.97442  98.32565 102.98242  97.36182 108.60640  97.46917
      18 105.79844  96.93320         11.22420   1.094478 108.60640  97.46917 102.98242  97.36182 102.99049  96.39709 108.61446  96.50463
      18 105.80654  95.96812         11.23283   1.096438 108.61446  96.50463 102.99049  96.39709 102.99863  95.43147 108.62260  95.53920
      18 105.81471  95.00215         11.24148   1.098400 108.62260  95.53920 102.99863  95.43147 103.00683  94.46495 108.63080  94.57288
      18 105.82294  94.03527         11.25013   1.100365 108.63080  94.57288 103.00683  94.46495 103.01511  93.49753 108.63907  93.60565
      18 105.83125  93.06750         11.25879   1.102332 108.63907  93.60565 103.01511  93.49753 103.02345  92.52921 108.64741  92.63752
      18 105.83963  92.09883         11.26745   1.104302 108.64741  92.63752 103.02345  92.52921 103.03186  91.55999 108.65581  91.66850
      18 105.84807  91.12925         11.27612   1.106274 108.65581  91.66850 103.03186  91.55999 103.04034  90.58987 108.66429  90.69857
      18 105.85658  90.15878         11.28480   1.108248 108.66429  90.69857 103.04034  90.58987 103.04889  89.61885 108.67284  89.72774
      18 105.86516  89.18740         11.29348   1.110225 108.67284  89.72774 103.04889  89.61885 103.05751  88.64692 108.68145  88.75600
      18 105.87382  88.21511         11.30217   1.112204 108.68145  88.75600 103.05751  88.64692 103.06620  87.67408 108.69014  87.78337
      18 105.88254  87.24192         11.31087   1.114186 108.69014  87.78337 103.06620  87.67408 103.07496  86.70035 108.69889  86.80982
      18 105.89133  86.26783         11.31957   1.116170 108.69889  86.80982 103.07496  86.70035 103.08378  85.72570 108.70771  85.83537
      18 105.90019  85.29283         11.32828   1.118157 108.70771  85.83537 103.08378  85.72570 103.09268  84.75015 108.71661  84.86001
      18 105.90912  84.31692         11.33700   1.120146 108.71661  84.86001 103.09268  84.75015 103.10165  83.77369 108.72557  83.88375
      18 105.91812  83.34010         11.34573   1.122137 108.72557  83.88375 103.10165  83.77369 103.11069  82.79631 108.73461  82.90657
      18 105.92719  82.36237         11.35446   1.124131 108.73461  82.90657 103.11069  82.79631 103.11980  81.81803 108.74371  81.92849
      18 105.93633  81.38373         11.36319   1.126128 108.74371  81.92849 103.11980  81.81803 103.12897  80.83884 108.75289  80.94949
      18 105.94555  80.40418         11.37194   1.128127 108.75289  80.94949 103.12897  80.83884 103.13822  79.85874 108.76213  79.96958
      18 105.95483  79.42372         11.38069   1.130128 108.76213  79.96958 103.13822  79.85874 103.14754  78.87772 108.77145  78.98876
      18 105.96418  78.44234         11.38945   1.132132 108.77145  78.98876 103.14754  78.87772 103.15694  77.89579 108.78084  78.00702
      18 105.97361  77.46005         11.39821   1.134139 108.78084  78.00702 103.15694  77.89579 103.16640  76.91294 108.79029  77.02438
      18 105.98310  76.47685         11.40698   1.136148 108.79029  77.02438 103.16640  76.91294 103.17593  75.92918 108.79982  76.04081
      18 105.99267  75.49272         11.41576   1.138159 108.79982  76.04081 103.17593  75.92918 103.18554  74.94450 108.80943  75.05633
      18 106.00231  74.50768         11.42455   1.140173 108.80943  75.05633 103.18554  74.94450 103.19521  73.95890 108.81910  74.07093
      18 106.01202  73.52172         11.43334   1.142190 108.81910  74.07093 103.19521  73.95890 103.20496  72.97238 108.82884  73.08461
      18 106.02181  72.53485         11.44214   1.144209 108.82884  73.08461 103.20496  72.97238 103.21478  71.98495 108.83866  72.09737
      18 106.03166  71.54705         11.45094   1.146230 108.83866  72.09737 103.21478  71.98495 103.22468  70.99659 108.84855  71.10921
      18 106.04159  70.55833         11.45975   1.148254 108.84855  71.10921 103.22468  70.99659 103.23464  70.00731 108.85851  70.12013
      18 106.05159  69.56869         11.46857   1.150280 108.85851  70.12013 103.23464  70.00731 103.24468  69.01711 108.86854  69.13013
      18 106.06166  68.57813         11.47740   1.152309 108.86854  69.13013 103.24468  69.01711 103.25479  68.02598 108.87865  68.13920
      18 106.07180  67.58664         11.48623   1.154341 108.87865  68.13920 103.25479  68.02598 103.26497  67.03393 108.88883  67.14735
      18 106.08202  66.59423         11.49507   1.156375 108.88883  67.14735 103.26497  67.03393 103.27523  66.04096 108.89908  66.15458
      18 106.09231  65.60089         11.50391   1.158411 108.89908  66.15458 103.27523  66.04096 103.28556  65.04706 108.90940  65.16088
      18 106.10267  64.60662         11.51277   1.160451 108.90940  65.16088 103.28556  65.04706 103.29596  64.05223 108.91980  64.16625
      18 106.11311  63.61143         11.52162   1.162492 108.91980  64.16625 103.29596  64.05223 103.30643  63.05647 108.93027  63.17069
      18 106.12362  62.61531         11.53049   1.164536 108.93027  63.17069 103.30643  63.05647 103.31698  62.05978 108.94082  62.17420
      18 106.13420  61.61825         11.53936   1.166583 108.94082  62.17420 103.31698  62.05978 103.32760  61.06216 108.95143  61.17679
      18 106.14486  60.62027         11.54824   1.168632 108.95143  61.17679 103.32760  61.06216 103.33830  60.06362 108.96213  60.17844
      18 106.15559  59.62136         11.55713   1.170684 108.96213  60.17844 103.33830  60.06362 103.34907  59.06413 108.97289  59.17916
      18 106.16639  58.62151         11.56602   1.172739 108.97289  59.17916 103.34907  59.06413 103.35991  58.06372 108.98373  58.17895
      18 106.17727  57.62073         11.57492   1.174796 108.98373  58.17895 103.35991  58.06372 103.37083  57.06237 108.99465  57.17780
      18 106.18823  56.61901         11.58383   1.176855 108.99465  57.17780 103.37083  57.06237 103.38182  56.06009 109.00563  56.17572
      18 106.19925  55.61636         11.59275   1.178917 109.00563  56.17572 103.38182  56.06009 103.39289  55.05687 109.01670  55.17270
      18 106.21036  54.61278         11.60167   1.180982 109.01670  55.17270 103.39289  55.05687 103.40403  54.05271 109.02784  54.16875
      18 106.22153  53.60825         11.61059   1.183049 109.02784  54.16875 103.40403  54.05271 103.41525  53.04761 109.03905  53.16385
      18 106.23278  52.60279         11.61953   1.185119 109.03905  53.16385 103.41525  53.04761 103.42654  52.04158 109.05034  52.15802
      18 106.24411  51.59638         11.62847   1.187191 109.05034  52.15802 103.42654  52.04158 103.43791  51.03460 109.06170  51.15125
      18 106.25551  50.58904         11.63742   1.189266 109.06170  51.15125 103.43791  51.03460 103.44935  50.02669 109.07314  50.14354
      18 106.26699  49.58076         11.64637   1.191344 109.07314  50.14354 103.44935  50.02669 103.46087  49.01783 109.08465  49.13488
      18 106.27855  48.57153         11.65534   1.193424 109.08465  49.13488 103.46087  49.01783 103.47246  48.00803 109.09624  48.12529
      18 106.29018  47.56136         11.66431   1.195507 109.09624  48.12529 103.47246  48.00803 103.48413  46.99729 109.10791  47.11475
      18 106.30188  46.55024         11.67328   1.197592 109.10791  47.11475 103.48413  46.99729 103.49588  45.98560 109.11965  46.10326
      18 106.31366  45.53818         11.68226   1.199680 109.11965  46.10326 103.49588  45.98560 103.50770  44.97296 109.13146  45.09083
      18 106.32552  44.52518         11.69125   1.201771 109.13146  45.09083 103.50770  44.97296 103.51960  43.95938 109.14336  44.07745
      18 106.33746  43.51122         11.70025   1.203864 109.14336  44.07745 103.51960  43.95938 103.53157  42.94485 109.15533  43.06313
      18 106.34947  42.49632         11.70925   1.205960 109.15533  43.06313 103.53157  42.94485 103.54362  41.92937 109.16738  42.04785
      18 106.36155  41.48047         11.71827   1.208058 109.16738  42.04785 103.54362  41.92937 103.55575  40.91294 109.17950  41.03163
      18 106.37372  40.46367         11.72728   1.210159 109.17950  41.03163 103.55575  40.91294 103.56796  39.89555 109.19170  40.01446
      18 106.38596  39.44591         11.73631   1.212263 109.19170  40.01446 103.56796  39.89555 103.58024  38.87722 109.20398  38.99633
      18 106.39828  38.42721         11.74534   1.214369 109.20398  38.99633 103.58024  38.87722 103.59260  37.85794 109.21633  37.97725
      18 106.41067  37.40755         11.75438   1.216478 109.21633  37.97725 103.59260  37.85794 103.60504  36.83770 109.22877  36.95722
      18 106.42315  36.38693         11.76342   1.218590 109.22877  36.95722 103.60504  36.83770 103.61755  35.81650 109.24128  35.93623
      18 106.43570  35.36537         11.77247   1.220704 109.24128  35.93623 103.61755  35.81650 103.63014  34.79435 109.25386  34.91429
      18 106.44833  34.34284         11.78153   1.222821 109.25386  34.91429 103.63014  34.79435 103.64281  33.77124 109.26653  33.89139
      18 106.46104  33.31936         11.79060   1.224941 109.26653  33.89139 103.64281  33.77124 103.65556  32.74718 109.27927  32.86753
      18 106.47382  32.29492         11.79967   1.227063 109.27927  32.86753 103.65556  32.74718 103.66839  31.72216 109.29210  31.84272
      18 106.48669  31.26952         11.80875   1.229188 109.29210  31.84272 103.66839  31.72216 103.68130  30.69617 109.30500  30.81694
      18 106.49963  30.24316         11.81784   1.231315 109.30500  30.81694 103.68130  30.69617 103.69428  29.66923 109.31798  29.79021
      18 106.51265  29.21584         11.82693   1.233445 109.31798  29.79021 103.69428  29.66923 103.70734  28.64132 109.33104  28.76251
      18 106.52575  28.18755         11.83604   1.235578 109.33104  28.76251 103.70734  28.64132 103.72048  27.61245 109.34417  27.73385
      18 106.53893  27.15831         11.84514   1.237714 109.34417  27.73385 103.72048  27.61245 103.73371  26.58262 109.35739  26.70422
      18 106.55219  26.12810         11.85426   1.239852 109.35739  26.70422 103.73371  26.58262 103.74701  25.55182 109.37069  25.67364
      18 106.56553  25.09692         11.86338   1.241993 109.37069  25.67364 103.74701  25.55182 103.76039  24.52005 109.38406  24.64208
      18 106.57894  24.06478         11.87251   1.244137 109.38406  24.64208 103.76039  24.52005 103.77385  23.48732 109.39752  23.60956
      18 106.59244  23.03167         11.88165   1.246283 109.39752  23.60956 103.77385  23.48732 103.78739  22.45362 109.41105  22.57607
      18 106.60602  21.99759         11.89079   1.248432 109.41105  22.57607 103.78739  22.45362 103.80100  21.41896 109.42467  21.54162
      18 106.61968  20.96254         11.89994   1.250584 109.42467  21.54162 103.80100  21.41896 103.81470  20.38332 109.43836  20.50619
      18 106.63341  19.92652         11.90910   1.252738 109.43836  20.50619 103.81470  20.38332 103.82848  19.34671 109.45214  19.46979
      18 106.64723  18.88953         11.91826   1.254895 109.45214  19.46979 103.82848  19.34671 103.84234  18.30913 109.46599  18.43242
      18 106.66113  17.85157         11.92743   1.257055 109.46599  18.43242 103.84234  18.30913 103.85629  17.27057 109.47993  17.39408
      18 106.67511  16.81264         11.93661   1.259218 109.47993  17.39408 103.85629  17.27057 103.87031  16.23104 109.49395  16.35476
      18 106.68917  15.77273         11.94580   1.261383 109.49395  16.35476 103.87031  16.23104 103.88441  15.19054 109.50804  15.31447
      18 106.70331  14.73184         11.95499   1.263551 109.50804  15.31447 103.88441  15.19054 103.89859  14.14906 109.52222  14.27321
      18 106.71753  13.68998         11.96419   1.265722 109.52222  14.27321 103.89859  14.14906 103.91286  13.10660 109.53648  13.23096
      18 106.73184  12.64714         11.97340   1.267895 109.53648  13.23096 103.91286  13.10660 103.92721  12.06317 109.55083  12.18774
      17  96.83791 127.62503         11.58383   1.291198  99.64941 128.15653  94.02584 128.02989  94.02643 127.09339  99.65000 127.22025
      17  96.83854 126.68821         11.59275   1.293336  99.65000 127.22025  94.02643 127.09339  94.02709 126.15603  99.65065 126.28310
      17  96.83922 125.75052         11.60167   1.295476  99.65065 126.28310  94.02709 126.15603  94.02780 125.21780  99.65136 125.34508
      17  96.83996 124.81196         11.61059   1.297619  99.65136 125.34508  94.02780 125.21780  94.02857 124.27870  99.65213 124.40619
      17  96.84076 123.87253         11.61953   1.299765  99.65213 124.40619  94.02857 124.27870  94.02940 123.33873  99.65295 123.46643
      17  96.84162 122.93223         11.62847   1.301913  99.65295 123.46643  94.02940 123.33873  94.03029 122.39788  99.65384 122.52579
      17  96.84253 121.99105         11.63742   1.304064  99.65384 122.52579  94.03029 122.39788  94.03125 121.45617  99.65479 121.58429
      17  96.84351 121.04900         11.64637   1.306217  99.65479 121.58429  94.03125 121.45617  94.03226 120.51357  99.65579 120.64190
      17  96.84455 120.10607         11.65534   1.308373  99.65579 120.64190  94.03226 120.51357  94.03333 119.57010  99.65686 119.69864
      17  96.84565 119.16227         11.66431   1.310532  99.65686 119.69864  94.03333 119.57010  94.03446 118.62575  99.65798 118.75451
      17  96.84681 118.21759         11.67328   1.312694  99.65798 118.75451  94.03446 118.62575  94.03565 117.68053  99.65917 117.80950
      17  96.84803 117.27204         11.68226   1.314858  99.65917 117.80950  94.03565 117.68053  94.03690 116.73443  99.66042 116.86361
      17  96.84930 116.32560         11.69125   1.317025  99.66042 116.86361  94.03690 116.73443  94.03821 115.78745  99.66172 115.91684
      17  96.85064 115.37829         11.70025   1.319194  99.66172 115.91684  94.03821 115.78745  94.03958 114.83959  99.66309 114.96919
      17  96.85204 114.43009         11.70925   1.321366  99.66309 114.96919  94.03958 114.83959  94.04102 113.89085  99.66452 114.02067
      17  96.85351 113.48102         11.71827   1.323541  99.66452 114.02067  94.04102 113.89085  94.04251 112.94122  99.66601 113.07125
      17  96.85503 112.53106         11.72728   1.325718  99.66601 113.07125  94.04251 112.94122  94.04407 111.99071  99.66756 112.12096
      17  96.85661 111.58022         11.73631   1.327898  99.66756 112.12096  94.04407 111.99071  94.04568 111.03932  99.66917 111.16979
      17  96.85826 110.62849         11.74534   1.330081  99.66917 111.16979  94.04568 111.03932  94.04736 110.08705  99.67084 110.21772
      17  96.85996 109.67588         11.75438   1.332267  99.67084 110.21772  94.04736 110.08705  94.04910 109.13389  99.67258 109.26478
      17  96.86173 108.72238         11.76342   1.334455  99.67258 109.26478  94.04910 109.13389  94.05090 108.17984  99.67437 108.31095
      17  96.86356 107.76800         11.77247   1.336646  99.67437 108.31095  94.05090 108.17984  94.05276 107.22491  99.67623 107.35623
      17  96.86545 106.81273         11.78153   1.338839  99.67623 107.35623  94.05276 107.22491  94.05469 106.26908  99.67815 106.40062
      17  96.86740 105.85657         11.79060   1.341035  99.67815 106.40062  94.05469 106.26908  94.05667 105.31237  99.68013 105.44412
      17  96.86942 104.89952         11.79967   1.343234  99.68013 105.44412  94.05667 105.31237  94.05872 104.35477  99.68217 104.48674
      17  96.87149 103.94158         11.80875   1.345436  99.68217 104.48674  94.05872 104.35477  94.06083 103.39627  99.68428 103.52846
      17  96.87363 102.98275         11.81784   1.347640  99.68428 103.52846  94.06083 103.39627  94.06301 102.43689  99.68645 102.56929
      17  96.87584 102.02302         11.82693   1.349847  99.68645 102.56929  94.06301 102.43689  94.06524 101.47661  99.68868 101.60923
      17  96.87810 101.06241         11.83604   1.352057  99.68868 101.60923  94.06524 101.47661  94.06754 100.51544  99.69097 100.64827
      17  96.88043 100.10090         11.84514   1.354270  99.69097 100.64827  94.06754 100.51544  94.06990  99.55337  99.69333  99.68642
      17  96.88282  99.13849         11.85426   1.356485  99.69333  99.68642  94.06990  99.55337  94.07233  98.59041  99.69575  98.72368
      17  96.88527  98.17519         11.86338   1.358703  99.69575  98.72368  94.07233  98.59041  94.07481  97.62655  99.69823  97.76004
      17  96.88779  97.21099         11.87251   1.360923  99.69823  97.76004  94.07481  97.62655  94.07737  96.66179  99.70078  96.79550
      17  96.89037  96.24589         11.88165   1.363147  99.70078  96.79550  94.07737  96.66179  94.07998  95.69614  99.70339  95.83006
      17  96.89301  95.27990         11.89079   1.365373  99.70339  95.83006  94.07998  95.69614  94.08266  94.72958  99.70606  94.86372
      17  96.89572  94.31300         11.89994   1.367602  99.70606  94.86372  94.08266  94.72958  94.08540  93.76213  99.70880  93.89649
      17  96.89849  93.34520         11.90910   1.369834  99.70880  93.89649  94.08540  93.76213  94.08821  92.79377  99.71160  92.92835
      17  96.90133  92.37651         11.91826   1.372068  99.71160  92.92835  94.08821  92.79377  94.09108  91.82451  99.71446  91.95931
      17  96.90423  91.40691         11.92743   1.374305  99.71446  91.95931  94.09108  91.82451  94.09401  90.85435  99.71739  90.98937
      17  96.90719  90.43640         11.93661   1.376545  99.71739  90.98937  94.09401  90.85435  94.09701  89.88329  99.72038  90.01852
      17  96.91022  89.46499         11.94580   1.378788  99.72038  90.01852  94.09701  89.88329  94.10007  88.91131  99.72344  89.04677
      17  96.91331  88.49268         11.95499   1.381033  99.72344  89.04677  94.10007  88.91131  94.10320  87.93844  99.72656  88.07412
      17  96.91647  87.51946         11.96419   1.383282  99.72656  88.07412  94.10320  87.93844  94.10639  86.96465  99.72975  87.10055
      17  96.91969  86.54533         11.97340   1.385533  99.72975  87.10055  94.10639  86.96465  94.10965  85.98996  99.73300  86.12608
      17  96.92298  85.57030         11.98261   1.387786  99.73300  86.12608  94.10965  85.98996  94.11297  85.01436  99.73632  85.15070
      17  96.92633  84.59435         11.99183   1.390043  99.73632  85.15070  94.11297  85.01436  94.11636  84.03785  99.73970  84.17442
      17  96.92975  83.61750         12.00106   1.392302  99.73970  84.17442  94.11636  84.03785  94.11981  83.06043  99.74315  83.19722
      17  96.93323  82.63973         12.01029   1.394565  99.74315  83.19722  94.11981  83.06043  94.12333  82.08210  99.74666  82.21911
      17  96.93678  81.66105         12.01954   1.396830  99.74666  82.21911  94.12333  82.08210  94.12691  81.10285  99.75024  81.24008
      17  96.94039  80.68146         12.02879   1.399097  99.75024  81.24008  94.12691  81.10285  94.13056  80.12269  99.75388  80.26015
      17  96.94407  79.70096         12.03804   1.401368  99.75388  80.26015  94.13056  80.12269  94.13428  79.14162  99.75759  79.27930
      17  96.94782  78.71954         12.04731   1.403641  99.75759  79.27930  94.13428  79.14162  94.13806  78.15963  99.76137  78.29753
      17  96.95163  77.73721         12.05658   1.405918  99.76137  78.29753  94.13806  78.15963  94.14191  77.17673  99.76521  77.31485
      17  96.95551  76.75395         12.06585   1.408197  99.76521  77.31485  94.14191  77.17673  94.14582  76.19290  99.76912  76.33125
      17  96.95945  75.76978         12.07514   1.410479  99.76912  76.33125  94.14582  76.19290  94.14980  75.20816  99.77309  75.34674
      17  96.96346  74.78470         12.08443   1.412763  99.77309  75.34674  94.14980  75.20816  94.15385  74.22250  99.77714  74.36130
      17  96.96754  73.79869         12.09373   1.415051  99.77714  74.36130  94.15385  74.22250  94.15796  73.23592  99.78125  73.37494
      17  96.97169  72.81176         12.10304   1.417341  99.78125  73.37494  94.15796  73.23592  94.16214  72.24842  99.78542  72.38767
      17  96.97590  71.82391         12.11235   1.419634  99.78542  72.38767  94.16214  72.24842  94.16639  71.26000  99.78966  71.39947
      17  96.98018  70.83514         12.12167   1.421930  99.78966  71.39947  94.16639  71.26000  94.17071  70.27065  99.79397  70.41035
      17  96.98452  69.84544         12.13100   1.424229  99.79397  70.41035  94.17071  70.27065  94.17509  69.28038  99.79835  69.42030
      17  96.98894  68.85482         12.14034   1.426531  99.79835  69.42030  94.17509  69.28038  94.17954  68.28919  99.80280  68.42934
      17  96.99342  67.86328         12.14968   1.428836  99.80280  68.42934  94.17954  68.28919  94.18406  67.29707  99.80731  67.43744
      17  96.99797  66.87081         12.15903   1.431143  99.80731  67.43744  94.18406  67.29707  94.18865  66.30402  99.81189  66.44462
      17  97.00259  65.87741         12.16838   1.433454  99.81189  66.44462  94.18865  66.30402  94.19330  65.31004  99.81654  65.45087
      17  97.00727  64.88308         12.17775   1.435767  99.81654  65.45087  94.19330  65.31004  94.19802  64.31514  99.82125  64.45619
      17  97.01203  63.88782         12.18712   1.438083  99.82125  64.45619  94.19802  64.31514  94.20281  63.31930  99.82604  63.46058
      17  97.01685  62.89164         12.19650   1.440402  99.82604  63.46058  94.20281  63.31930  94.20767  62.32254  99.83089  62.46405
      17  97.02174  61.89452         12.20588   1.442724  99.83089  62.46405  94.20767  62.32254  94.21260  61.32484  99.83582  61.46658
      17  97.02670  60.89647         12.21528   1.445048  99.83582  61.46658  94.21260  61.32484  94.21760  60.32621  99.84081  60.46817
      17  97.03173  59.89749         12.22468   1.447376  99.84081  60.46817  94.21760  60.32621  94.22266  59.32664  99.84587  59.46884
      17  97.03682  58.89757         12.23408   1.449707  99.84587  59.46884  94.22266  59.32664  94.22780  58.32615  99.85100  58.46857
      17  97.04199  57.89672         12.24350   1.452040  99.85100  58.46857  94.22780  58.32615  94.23300  57.32471  99.85619  57.46737
      17  97.04722  56.89493         12.25292   1.454376  99.85619  57.46737  94.23300  57.32471  94.23828  56.32234  99.86146  56.46522
      17  97.05253  55.89221         12.26235   1.456716  99.86146  56.46522  94.23828  56.32234  94.24362  55.31903  99.86680  55.46215
      17  97.05791  54.88854         12.27178   1.459058  99.86680  55.46215  94.24362  55.31903  94.24903  54.31479  99.87220  54.45813
      17  97.06335  53.88394         12.28123   1.461403  99.87220  54.45813  94.24903  54.31479  94.25451  53.30960  99.87768  53.45317
      17  97.06886  52.87840         12.29068   1.463751  99.87768  53.45317  94.25451  53.30960  94.26007  52.30347  99.88323  52.44728
      17  97.07445  51.87192         12.30014   1.466102  99.88323  52.44728  94.26007  52.30347  94.26569  51.29640  99.88884  51.44044
      17  97.08010  50.86449         12.30960   1.468455  99.88884  51.44044  94.26569  51.29640  94.27138  50.28839  99.89453  50.43266
      17  97.08583  49.85613         12.31907   1.470812  99.89453  50.43266  94.27138  50.28839  94.27715  49.27944  99.90029  49.42393
      17  97.09162  48.84682         12.32855   1.473172  99.90029  49.42393  94.27715  49.27944  94.28298  48.26954  99.90612  48.41427
      17  97.09749  47.83656         12.33804   1.475535  99.90612  48.41427  94.28298  48.26954  94.28888  47.25869  99.91202  47.40365
      17  97.10343  46.82536         12.34754   1.477900  99.91202  47.40365  94.28888  47.25869  94.29486  46.24690  99.91799  46.39210
      17  97.10944  45.81321         12.35704   1.480269  99.91799  46.39210  94.29486  46.24690  94.30091  45.23417  99.92403  45.37959
      17  97.11552  44.80011         12.36655   1.482640  99.92403  45.37959  94.30091  45.23417  94.30703  44.22048  99.93014  44.36614
      17  97.12167  43.78607         12.37606   1.485015  99.93014  44.36614  94.30703  44.22048  94.31322  43.20584  99.93632  43.35173
      17  97.12789  42.77107         12.38559   1.487392  99.93632  43.35173  94.31322  43.20584  94.31948  42.19026  99.94258  42.33638
      17  97.13418  41.75513         12.39512   1.489773  99.94258  42.33638  94.31948  42.19026  94.32581  41.17372  99.94891  41.32008
      17  97.14055  40.73823         12.40466   1.492156  99.94891  41.32008  94.32581  41.17372  94.33222  40.15623  99.95530  40.30282
      17  97.14699  39.72038         12.41420   1.494542  99.95530  40.30282  94.33222  40.15623  94.33869  39.13778  99.96178  39.28461
      17  97.15350  38.70158         12.42375   1.496932  99.96178  39.28461  94.33869  39.13778  94.34524  38.11839  99.96832  38.26545
      17  97.16008  37.68182         12.43331   1.499324  99.96832  38.26545  94.34524  38.11839  94.35186  37.09803  99.97493  37.24533
      17  97.16674  36.66111         12.44288   1.501719  99.97493  37.24533  94.35186  37.09803  94.35856  36.07672  99.98162  36.22425
      17  97.17346  35.63944         12.45246   1.504118  99.98162  36.22425  94.35856  36.07672  94.36532  35.05446  99.98838  35.20222
      17  97.18026  34.61681         12.46204   1.506519  99.98838  35.20222  94.36532  35.05446  94.37216  34.03123  99.99522  34.17923
      17  97.18714  33.59322         12.47163   1.508923  99.99522  34.17923  94.37216  34.03123  94.37908  33.00705 100.00212  33.15528
      17  97.19408  32.56867         12.48123   1.511331 100.00212  33.15528  94.37908  33.00705  94.38606  31.98190 100.00910  32.13038
      17  97.20110  31.54316         12.49083   1.513741 100.00910  32.13038  94.38606  31.98190  94.39312  30.95579 100.01616  31.10451
      17  97.20819  30.51670         12.50044   1.516154 100.01616  31.10451  94.39312  30.95579  94.40025  29.92872 100.02328  30.07767
      17  97.21536  29.48926         12.51006   1.518571 100.02328  30.07767  94.40025  29.92872  94.40746  28.90069 100.03048  29.04988
      17  97.22260  28.46087         12.51969   1.520990 100.03048  29.04988  94.40746  28.90069  94.41474  27.87169 100.03776  28.02112
      17  97.22992  27.43151         12.52932   1.523413 100.03776  28.02112  94.41474  27.87169  94.42209  26.84173 100.04510  26.99139
      17  97.23730  26.40118         12.53897   1.525838 100.04510  26.99139  94.42209  26.84173  94.42952  25.81080 100.05253  25.96070
      17  97.24477  25.36989         12.54862   1.528267 100.05253  25.96070  94.42952  25.81080  94.43703  24.77891 100.06002  24.92905
      17  97.25230  24.33763         12.55827   1.530698 100.06002  24.92905  94.43703  24.77891  94.44460  23.74604 100.06759  23.89642
      17  97.25991  23.30440         12.56794   1.533133 100.06759  23.89642  94.44460  23.74604  94.45225  22.71221 100.07524  22.86283
      17  97.26760  22.27020         12.57761   1.535571 100.07524  22.86283  94.45225  22.71221  94.45998  21.67740 100.08296  21.82826
      17  97.27536  21.23503         12.58729   1.538011 100.08296  21.82826  94.45998  21.67740  94.46778  20.64163 100.09075  20.79272
      17  97.28320  20.19888         12.59697   1.540455 100.09075  20.79272  94.46778  20.64163  94.47566  19.60488 100.09862  19.75622
      17  97.29111  19.16177         12.60667   1.542902 100.09862  19.75622  94.47566  19.60488  94.48361  18.56716 100.10657  18.71873
      17  97.29909  18.12368         12.61637   1.545352 100.10657  18.71873  94.48361  18.56716  94.49164  17.52846 100.11459  17.68028
      17  97.30716  17.08462         12.62608   1.547805 100.11459  17.68028  94.49164  17.52846  94.49974  16.48879 100.12269  16.64085
      17  97.31529  16.04458         12.63579   1.550261 100.12269  16.64085  94.49974  16.48879  94.50792  15.44814 100.13086  15.60044
      17  97.32351  15.00356         12.64552   1.552720 100.13086  15.60044  94.50792  15.44814  94.51618  14.40651 100.13911  14.55905
      17  97.33180  13.96156         12.65525   1.555183 100.13911  14.55905  94.51618  14.40651  94.52451  13.36391 100.14743  13.51669
      17  97.34016  12.91859         12.66498   1.557648 100.14743  13.51669  94.52451  13.36391  94.53291  12.32033 100.15583  12.47335
      17  97.34860  11.87464         12.67473   1.560117 100.15583  12.47335  94.53291  12.32033  94.54140  11.27576 100.16431  11.42903
      17  97.35712  10.82970         12.68448   1.562588 100.16431  11.42903  94.54140  11.27576  94.54996  10.23021 100.17286  10.38372
      17  97.36572   9.78379         12.69425   1.565063 100.17286  10.38372  94.54996  10.23021  94.55859   9.18368 100.18149   9.33744
      17  97.37439   8.73689         12.70401   1.567541 100.18149   9.33744  94.55859   9.18368  94.56731   8.13617 100.19020   8.29016
      17  97.38314   7.68900         12.71379   1.570022 100.19020   8.29016  94.56731   8.13617  94.57610   7.08767 100.19898   7.24191
      17  97.39197   6.64013         12.72357   1.572506 100.19898   7.24191  94.57610   7.08767  94.58497   6.03819 100.20785   6.19267
      16  87.03932 127.27512         12.30014   1.582304  89.85344 127.82121  84.23058 127.66600  84.22521 126.72889  89.84806 126.88433
      16  87.03397 126.33769         12.30960   1.584746  89.84806 126.88433  84.22521 126.72889  84.21989 125.79090  89.84273 125.94658
      16  87.02867 125.39939         12.31907   1.587191  89.84273 125.94658  84.21989 125.79090  84.21462 124.85204  89.83746 125.00796
      16  87.02343 124.46021         12.32855   1.589639  89.83746 125.00796  84.21462 124.85204  84.20941 123.91230  89.83224 124.06847
      16  87.01824 123.52016         12.33804   1.592089  89.83224 124.06847  84.20941 123.91230  84.20425 122.97170  89.82708 123.12810
      16  87.01310 122.57924         12.34754   1.594542  89.82708 123.12810  84.20425 122.97170  84.19915 122.03021  89.82197 122.18686
      16  87.00802 121.63744         12.35704   1.596998  89.82197 122.18686  84.19915 122.03021  84.19410 121.08786  89.81691 121.24474
      16  87.00300 120.69476         12.36655   1.599456  89.81691 121.24474  84.19410 121.08786  84.18910 120.14462  89.81191 120.30175
      16  86.99803 119.75121         12.37606   1.601917  89.81191 120.30175  84.18910 120.14462  84.18416 119.20051  89.80696 119.35788
      16  86.99311 118.80677         12.38559   1.604381  89.80696 119.35788  84.18416 119.20051  84.17928 118.25552  89.80207 118.41313
      16  86.98825 117.86146         12.39512   1.606848  89.80207 118.41313  84.17928 118.25552  84.17445 117.30964  89.79723 117.46750
      16  86.98344 116.91527         12.40466   1.609317  89.79723 117.46750  84.17445 117.30964  84.16967 116.36289  89.79245 116.52099
      16  86.97869 115.96820         12.41420   1.611789  89.79245 116.52099  84.16967 116.36289  84.16495 115.41526  89.78772 115.57360
      16  86.97399 115.02025         12.42375   1.614263  89.78772 115.57360  84.16495 115.41526  84.16028 114.46674  89.78305 114.62532
      16  86.96935 114.07142         12.43331   1.616740  89.78305 114.62532  84.16028 114.46674  84.15567 113.51735  89.77843 113.67617
      16  86.96477 113.12170         12.44288   1.619220  89.77843 113.67617  84.15567 113.51735  84.15112 112.56706  89.77387 112.72613
      16  86.96024 112.17109         12.45246   1.621703  89.77387 112.72613  84.15112 112.56706  84.14662 111.61590  89.76937 111.77521
      16  86.95576 111.21960         12.46204   1.624189  89.76937 111.77521  84.14662 111.61590  84.14218 110.66384  89.76492 110.82340
      16  86.95135 110.26723         12.47163   1.626677  89.76492 110.82340  84.14218 110.66384  84.13779 109.71090  89.76052 109.87070
      16  86.94698 109.31397         12.48123   1.629167  89.76052 109.87070  84.13779 109.71090  84.13346 108.75707  89.75619 108.91712
      16  86.94268 108.35982         12.49083   1.631661  89.75619 108.91712  84.13346 108.75707  84.12919 107.80236  89.75191 107.96265
      16  86.93843 107.40478         12.50044   1.634157  89.75191 107.96265  84.12919 107.80236  84.12497 106.84675  89.74768 107.00729
      16  86.93424 106.44885         12.51006   1.636656  89.74768 107.00729  84.12497 106.84675  84.12081 105.89025  89.74351 106.05103
      16  86.93010 105.49203         12.51969   1.639158  89.74351 106.05103  84.12081 105.89025  84.11671 104.93287  89.73940 105.09389
      16  86.92602 104.53432         12.52932   1.641663  89.73940 105.09389  84.11671 104.93287  84.11266 103.97459  89.73535 104.13586
      16  86.92200 103.57571         12.53897   1.644170  89.73535 104.13586  84.11266 103.97459  84.10867 103.01541  89.73135 103.17693
      16  86.91803 102.61622         12.54862   1.646680  89.73135 103.17693  84.10867 103.01541  84.10474 102.05534  89.72741 102.21711
      16  86.91413 101.65582         12.55827   1.649193  89.72741 102.21711  84.10474 102.05534  84.10086 101.09438  89.72353 101.25639
      16  86.91027 100.69454         12.56794   1.651708  89.72353 101.25639  84.10086 101.09438  84.09704 100.13252  89.71970 100.29478
      16  86.90648  99.73235         12.57761   1.654227  89.71970 100.29478  84.09704 100.13252  84.09328  99.16976  89.71593  99.33227
      16  86.90274  98.76927         12.58729   1.656748  89.71593  99.33227  84.09328  99.16976  84.08958  98.20611  89.71222  98.36886
      16  86.89907  97.80529         12.59697   1.659271  89.71222  98.36886  84.08958  98.20611  84.08593  97.24156  89.70857  97.40456
      16  86.89545  96.84041         12.60667   1.661798  89.70857  97.40456  84.08593  97.24156  84.08234  96.27610  89.70497  96.43935
      16  86.89188  95.87463         12.61637   1.664327  89.70497  96.43935  84.08234  96.27610  84.07881  95.30975  89.70144  95.47325
      16  86.88838  94.90795         12.62608   1.666859  89.70144  95.47325  84.07881  95.30975  84.07534  94.34249  89.69796  94.50624
      16  86.88493  93.94037         12.63579   1.669394  89.69796  94.50624  84.07534  94.34249  84.07193  93.37434  89.69454  93.53833
      16  86.88155  92.97188         12.64552   1.671932  89.69454  93.53833  84.07193  93.37434  84.06857  92.40527  89.69118  92.56952
      16  86.87822  92.00249         12.65525   1.674473  89.69118  92.56952  84.06857  92.40527  84.06528  91.43531  89.68787  91.59980
      16  86.87495  91.03220         12.66498   1.677016  89.68787  91.59980  84.06528  91.43531  84.06204  90.46444  89.68463  90.62918
      16  86.87174  90.06100         12.67473   1.679562  89.68463  90.62918  84.06204  90.46444  84.05886  89.49266  89.68144  89.65765
      16  86.86858  89.08889         12.68448   1.682111  89.68144  89.65765  84.05886  89.49266  84.05574  88.51997  89.67832  88.68521
      16  86.86549  88.11588         12.69425   1.684663  89.67832  88.68521  84.05574  88.51997  84.05268  87.54638  89.67525  87.71187
      16  86.86246  87.14196         12.70401   1.687217  89.67525  87.71187  84.05268  87.54638  84.04968  86.57188  89.67224  86.73762
      16  86.85948  86.16712         12.71379   1.689774  89.67224  86.73762  84.04968  86.57188  84.04674  85.59646  89.66929  85.76246
      16  86.85657  85.19138         12.72357   1.692334  89.66929  85.76246  84.04674  85.59646  84.04386  84.62014  89.66640  84.78638
      16  86.85371  84.21473         12.73336   1.694897  89.66640  84.78638  84.04386  84.62014  84.04104  83.64290  89.66357  83.80940
      16  86.85091  83.23716         12.74316   1.697463  89.66357  83.80940  84.04104  83.64290  84.03827  82.66475  89.66080  82.83150
      16  86.84818  82.25868         12.75297   1.700032  89.66080  82.83150  84.03827  82.66475  84.03557  81.68569  89.65809  81.85269
      16  86.84550  81.27928         12.76278   1.702603  89.65809  81.85269  84.03557  81.68569  84.03293  80.70571  89.65544  80.87297
      16  86.84289  80.29898         12.77260   1.705177  89.65544  80.87297  84.03293  80.70571  84.03035  79.72482  89.65285  79.89232
      16  86.84033  79.31775         12.78243   1.707754  89.65285  79.89232  84.03035  79.72482  84.02783  78.74301  89.65033  78.91077
      16  86.83784  78.33561         12.79227   1.710334  89.65033  78.91077  84.02783  78.74301  84.02537  77.76028  89.64786  77.92829
      16  86.83540  77.35254         12.80211   1.712917  89.64786  77.92829  84.02537  77.76028  84.02297  76.77663  89.64545  76.94490
      16  86.83303  76.36856         12.81197   1.715503  89.64545  76.94490  84.02297  76.77663  84.02063  75.79206  89.64310  75.96058
      16  86.83072  75.38366         12.82182   1.718091  89.64310  75.96058  84.02063  75.79206  84.01835  74.80658  89.64082  74.97535
      16  86.82847  74.39784         12.83169   1.720683  89.64082  74.97535  84.01835  74.80658  84.01613  73.82017  89.63859  73.98920
      16  86.82628  73.41110         12.84157   1.723277  89.63859  73.98920  84.01613  73.82017  84.01398  72.83284  89.63643  73.00212
      16  86.82415  72.42343         12.85145   1.725874  89.63643  73.00212  84.01398  72.83284  84.01188  71.84458  89.63433  72.01412
      16  86.82208  71.43484         12.86134   1.728474  89.63433  72.01412  84.01188  71.84458  84.00985  70.85540  89.63229  71.02519
      16  86.82008  70.44533         12.87123   1.731076  89.63229  71.02519  84.00985  70.85540  84.00788  69.86529  89.63031  70.03534
      16  86.81813  69.45489         12.88114   1.733682  89.63031  70.03534  84.00788  69.86529  84.00597  68.87426  89.62839  69.04457
      16  86.81625  68.46352         12.89105   1.736291  89.62839  69.04457  84.00597  68.87426  84.00413  67.88230  89.62654  68.05287
      16  86.81443  67.47123         12.90097   1.738902  89.62654  68.05287  84.00413  67.88230  84.00234  66.88942  89.62475  67.06023
      16  86.81267  66.47800         12.91090   1.741516  89.62475  67.06023  84.00234  66.88942  84.00062  65.89560  89.62302  66.06667
      16  86.81098  65.48385         12.92083   1.744134  89.62302  66.06667  84.00062  65.89560  83.99896  64.90085  89.62135  65.07218
      16  86.80935  64.48876         12.93078   1.746754  89.62135  65.07218  83.99896  64.90085  83.99736  63.90517  89.61975  64.07676
      16  86.80778  63.49275         12.94073   1.749377  89.61975  64.07676  83.99736  63.90517  83.99583  62.90856  89.61820  63.08041
      16  86.80627  62.49580         12.95069   1.752003  89.61820  63.08041  83.99583  62.90856  83.99436  61.91102  89.61672  62.08312
      16  86.80483  61.49792         12.96065   1.754631  89.61672  62.08312  83.99436  61.91102  83.99295  60.91254  89.61531  61.08490
      16  86.80345  60.49910         12.97063   1.757263  89.61531  61.08490  83.99295  60.91254  83.99160  59.91313  89.61395  60.08575
      16  86.80213  59.49935         12.98061   1.759898  89.61395  60.08575  83.99160  59.91313  83.99032  58.91278  89.61266  59.08566
      16  86.80087  58.49866         12.99060   1.762535  89.61266  59.08566  83.99032  58.91278  83.98910  57.91149  89.61144  58.08463
      16  86.79968  57.49704         13.00059   1.765176  89.61144  58.08463  83.98910  57.91149  83.98795  56.90927  89.61028  57.08267
      16  86.79856  56.49447         13.01060   1.767819  89.61028  57.08267  83.98795  56.90927  83.98686  55.90611  89.60918  56.07976
      16  86.79749  55.49097         13.02061   1.770465  89.60918  56.07976  83.98686  55.90611  83.98583  54.90200  89.60814  55.07592
      16  86.79650  54.48652         13.03063   1.773114  89.60814  55.07592  83.98583  54.90200  83.98487  53.89696  89.60717  54.07113
      16  86.79556  53.48114         13.04066   1.775767  89.60717  54.07113  83.98487  53.89696  83.98397  52.89097  89.60626  53.06541
      16  86.79469  52.47481         13.05069   1.778422  89.60626  53.06541  83.98397  52.89097  83.98314  51.88404  89.60542  52.05874
      16  86.79388  51.46754         13.06073   1.781080  89.60542  52.05874  83.98314  51.88404  83.98237  50.87617  89.60465  51.05113
      16  86.79314  50.45932         13.07078   1.783741  89.60465  51.05113  83.98237  50.87617  83.98166  49.86735  89.60393  50.04257
      16  86.79247  49.45016         13.08084   1.786405  89.60393  50.04257  83.98166  49.86735  83.98102  48.85758  89.60328  49.03307
      16  86.79186  48.44006         13.09091   1.789072  89.60328  49.03307  83.98102  48.85758  83.98045  47.84687  89.60270  48.02262
      16  86.79131  47.42900         13.10098   1.791741  89.60270  48.02262  83.98045  47.84687  83.97994  46.83521  89.60218  47.01122
      16  86.79083  46.41700         13.11106   1.794414  89.60218  47.01122  83.97994  46.83521  83.97949  45.82261  89.60173  45.99887
      16  86.79041  45.40405         13.12115   1.797090  89.60173  45.99887  83.97949  45.82261  83.97911  44.80905  89.60134  44.98558
      16  86.79006  44.39015         13.13125   1.799769  89.60134  44.98558  83.97911  44.80905  83.97880  43.79454  89.60102  43.97133
      16  86.78978  43.37529         13.14136   1.802451  89.60102  43.97133  83.97880  43.79454  83.97855  42.77908  89.60076  42.95613
      16  86.78956  42.35949         13.15147   1.805135  89.60076  42.95613  83.97855  42.77908  83.97837  41.76266  89.60057  41.93998
      16  86.78940  41.34273         13.16159   1.807823  89.60057  41.93998  83.97837  41.76266  83.97825  40.74529  89.60045  40.92288
      16  86.78932  40.32501         13.17172   1.810514  89.60045  40.92288  83.97825  40.74529  83.97820  39.72697  89.60039  39.90482
      16  86.78930  39.30635         13.18185   1.813207  89.60039  39.90482  83.97820  39.72697  83.97822  38.70769  89.60040  38.88581
      16  86.78934  38.28672         13.19200   1.815904  89.60040  38.88581  83.97822  38.70769  83.97831  37.68746  89.60048  37.86584
      16  86.78946  37.26614         13.20215   1.818604  89.60048  37.86584  83.97831  37.68746  83.97846  36.66626  89.60062  36.84491
      16  86.78963  36.24460         13.21231   1.821306  89.60062  36.84491  83.97846  36.66626  83.97867  35.64411  89.60083  35.82302
      16  86.78988  35.22210         13.22247   1.824012  89.60083  35.82302  83.97867  35.64411  83.97896  34.62100  89.60110  34.80017
      16  86.79019  34.19864         13.23265   1.826721  89.60110  34.80017  83.97896  34.62100  83.97931  33.59693  89.60144  33.77637
      16  86.79057  33.17422         13.24283   1.829432  89.60144  33.77637  83.97931  33.59693  83.97972  32.57189  89.60185  32.75160
      16  86.79102  32.14883         13.25302   1.832147  89.60185  32.75160  83.97972  32.57189  83.98021  31.54589  89.60233  31.72587
      16  86.79154  31.12249         13.26322   1.834865  89.60233  31.72587  83.98021  31.54589  83.98076  30.51893  89.60288  30.69917
      16  86.79212  30.09518         13.27343   1.837586  89.60288  30.69917  83.98076  30.51893  83.98138  29.49100  89.60349  29.67151
      16  86.79277  29.06690         13.28364   1.840309  89.60349  29.67151  83.98138  29.49100  83.98207  28.46211  89.60417  28.64289
      16  86.79349  28.03766         13.29386   1.843036  89.60417  28.64289  83.98207  28.46211  83.98283  27.43225  89.60492  27.61329
      16  86.79428  27.00745         13.30409   1.845766  89.60492  27.61329  83.98283  27.43225  83.98366  26.40142  89.60573  26.58273
      16  86.79513  25.97627         13.31433   1.848499  89.60573  26.58273  83.98366  26.40142  83.98455  25.36963  89.60662  25.55120
      16  86.79605  24.94412         13.32458   1.851235  89.60662  25.55120  83.98455  25.36963  83.98551  24.33686  89.60757  24.51871
      16  86.79705  23.91100         13.33483   1.853974  89.60757  24.51871  83.98551  24.33686  83.98654  23.30312  89.60859  23.48524
      16  86.79811  22.87691         13.34509   1.856716  89.60859  23.48524  83.98654  23.30312  83.98764  22.26841  89.60968  22.45080
      16  86.79924  21.84185         13.35536   1.859461  89.60968  22.45080  83.98764  22.26841  83.98881  21.23273  89.61084  21.41538
      16  86.80044  20.80582         13.36564   1.862209  89.61084  21.41538  83.98881  21.23273  83.99005  20.19607  89.61207  20.37900
      16  86.80170  19.76881         13.37593   1.864960  89.61207  20.37900  83.99005  20.19607  83.99136  19.15844  89.61337  19.34163
      16  86.80304  18.73082         13.38622   1.867715  89.61337  19.34163  83.99136  19.15844  83.99273  18.11983  89.61474  18.30330
      16  86.80445  17.69186         13.39652   1.870472  89.61474  18.30330  83.99273  18.11983  83.99418  17.08024  89.61618  17.26398
      16  86.80593  16.65192         13.40683   1.873233  89.61618  17.26398  83.99418  17.08024  83.99570  16.03968  89.61769  16.22369
      16  86.80747  15.61100         13.41715   1.875996  89.61769  16.22369  83.99570  16.03968  83.99728  14.99814  89.61926  15.18242
      16  86.80909  14.56911         13.42747   1.878763  89.61926  15.18242  83.99728  14.99814  83.99894  13.95561  89.62091  14.14016
      16  86.81078  13.52623         13.43780   1.881532  89.62091  14.14016  83.99894  13.95561  84.00066  12.91211  89.62263  13.09693
      16  86.81253  12.48237         13.44814   1.884305  89.62263  13.09693  84.00066  12.91211  84.00246  11.86762  89.62442  12.05272
      16  86.81436  11.43752         13.45849   1.887081  89.62442  12.05272  84.00246  11.86762  84.00433  10.82215  89.62627  11.00752
      16  86.81626  10.39170         13.46885   1.889860  89.62627  11.00752  84.00433  10.82215  84.00627   9.77570  89.62820   9.96134
      16  86.81823   9.34489         13.47921   1.892642  89.62820   9.96134  84.00627   9.77570  84.00828   8.72826  89.63020   8.91417
      16  86.82027   8.29709         13.48959   1.895427  89.63020   8.91417  84.00828   8.72826  84.01036   7.67983  89.63227   7.86602
      16  86.82238   7.24831         13.49997   1.898216  89.63227   7.86602  84.01036   7.67983  84.01251   6.63042  89.63442   6.81688
      16  86.82456   6.19854         13.51036   1.901007  89.63442   6.81688  84.01251   6.63042  84.01473   5.58001  89.63663   5.76675
      16  86.82682   5.14778         13.52075   1.903802  89.63663   5.76675  84.01473   5.58001  84.01703   4.52862  89.63892   4.71563
      16  86.82914   4.09603         13.53116   1.906600  89.63892   4.71563  84.01703   4.52862  84.01939   3.47624  89.64127   3.66352
      16  86.83154   3.04329         13.54157   1.909400  89.64127   3.66352  84.01939   3.47624  84.02183   2.42287  89.64370   2.61042
      16  86.83401   1.98955         13.55199   1.912204  89.64370   2.61042  84.02183   2.42287  84.02434   1.36850  89.64620   1.55633
      16  86.83655   0.93483         13.56242   1.915012  89.64620   1.55633  84.02434   1.36850  84.02692   0.31314  89.64878   0.50125
      16  86.83917  -0.12089         13.57286   1.917822  89.64878   0.50125  84.02692   0.31314  84.02958  -0.74322  89.65142  -0.55483
      15  75.97908 127.73664         13.10098   1.910595  78.79612 128.29882  73.17424 128.11142  73.16206 127.17429  78.78393 127.36196
      15  75.96692 126.79921         13.11106   1.913351  78.78393 127.36196  73.16206 127.17429  73.14993 126.23629  78.77179 126.42423
      15  75.95481 125.86091         13.12115   1.916110  78.77179 126.42423  73.14993 126.23629  73.13785 125.29742  78.75970 125.48563
      15  75.94275 124.92174         13.13125   1.918873  78.75970 125.48563  73.13785 125.29742  73.12581 124.35767  78.74765 124.54616
      15  75.93073 123.98169         13.14136   1.921638  78.74765 124.54616  73.12581 124.35767  73.11382 123.41705  78.73566 123.60581
      15  75.91876 123.04077         13.15147   1.924407  78.73566 123.60581  73.11382 123.41705  73.10189 122.47556  78.72371 122.66458
      15  75.90684 122.09897         13.16159   1.927179  78.72371 122.66458  73.10189 122.47556  73.09000 121.53318  78.71181 121.72248
      15  75.89497 121.15629         13.17172   1.929954  78.71181 121.72248  73.09000 121.53318  73.07815 120.58993  78.69996 120.77950
      15  75.88315 120.21274         13.18185   1.932732  78.69996 120.77950  73.07815 120.58993  73.06636 119.64580  78.68816 119.83565
      15  75.87138 119.26831         13.19200   1.935513  78.68816 119.83565  73.06636 119.64580  73.05462 118.70079  78.67641 118.89091
      15  75.85966 118.32300         13.20215   1.938298  78.67641 118.89091  73.05462 118.70079  73.04292 117.75490  78.66470 117.94530
      15  75.84798 117.37680         13.21231   1.941085  78.66470 117.94530  73.04292 117.75490  73.03128 116.80813  78.65305 116.99880
      15  75.83636 116.42973         13.22247   1.943876  78.65305 116.99880  73.03128 116.80813  73.01968 115.86048  78.64144 116.05142
      15  75.82478 115.48177         13.23265   1.946670  78.64144 116.05142  73.01968 115.86048  73.00814 114.91195  78.62989 115.10316
      15  75.81325 114.53293         13.24283   1.949468  78.62989 115.10316  73.00814 114.91195  72.99664 113.96253  78.61838 114.15401
      15  75.80178 113.58321         13.25302   1.952268  78.61838 114.15401  72.99664 113.96253  72.98520 113.01222  78.60693 113.20399
      15  75.79035 112.63260         13.26322   1.955072  78.60693 113.20399  72.98520 113.01222  72.97380 112.06103  78.59552 112.25307
      15  75.77898 111.68110         13.27343   1.957879  78.59552 112.25307  72.97380 112.06103  72.96245 111.10895  78.58416 111.30127
      15  75.76765 110.72872         13.28364   1.960689  78.58416 111.30127  72.96245 111.10895  72.95116 110.15599  78.57286 110.34858
      15  75.75637 109.77545         13.29386   1.963502  78.57286 110.34858  72.95116 110.15599  72.93991 109.20214  78.56160 109.39500
      15  75.74515 108.82129         13.30409   1.966319  78.56160 109.39500  72.93991 109.20214  72.92871 108.24739  78.55040 108.44054
      15  75.73397 107.86624         13.31433   1.969139  78.55040 108.44054  72.92871 108.24739  72.91757 107.29176  78.53924 107.48518
      15  75.72285 106.91030         13.32458   1.971962  78.53924 107.48518  72.91757 107.29176  72.90648 106.33524  78.52814 106.52893
      15  75.71178 105.95347         13.33483   1.974788  78.52814 106.52893  72.90648 106.33524  72.89543 105.37782  78.51709 105.57180
      15  75.70075 104.99574         13.34509   1.977618  78.51709 105.57180  72.89543 105.37782  72.88444 104.41951  78.50608 104.61376
      15  75.68978 104.03712         13.35536   1.980450  78.50608 104.61376  72.88444 104.41951  72.87350 103.46031  78.49513 103.65484
      15  75.67886 103.07761         13.36564   1.983287  78.49513 103.65484  72.87350 103.46031  72.86261 102.50021  78.48423 102.69502
      15  75.66799 102.11720         13.37593   1.986126  78.48423 102.69502  72.86261 102.50021  72.85177 101.53921  78.47339 101.73430
      15  75.65717 101.15590         13.38622   1.988968  78.47339 101.73430  72.85177 101.53921  72.84098 100.57732  78.46259 100.77269
      15  75.64641 100.19370         13.39652   1.991814  78.46259 100.77269  72.84098 100.57732  72.83025  99.61453  78.45184  99.81018
      15  75.63569  99.23060         13.40683   1.994663  78.45184  99.81018  72.83025  99.61453  72.81956  98.65084  78.44115  98.84677
      15  75.62503  98.26660         13.41715   1.997516  78.44115  98.84677  72.81956  98.65084  72.80893  97.68626  78.43051  97.88246
      15  75.61442  97.30170         13.42747   2.000371  78.43051  97.88246  72.80893  97.68626  72.79835  96.72077  78.41992  96.91725
      15  75.60386  96.33590         13.43780   2.003230  78.41992  96.91725  72.79835  96.72077  72.78782  95.75438  78.40938  95.95114
      15  75.59336  95.36920         13.44814   2.006093  78.40938  95.95114  72.78782  95.75438  72.77735  94.78708  78.39890  94.98413
      15  75.58290  94.40160         13.45849   2.008958  78.39890  94.98413  72.77735  94.78708  72.76693  93.81889  78.38846  94.01622
      15  75.57250  93.43309         13.46885   2.011827  78.38846  94.01622  72.76693  93.81889  72.75656  92.84979  78.37808  93.04740
      15  75.56215  92.46368         13.47921   2.014699  78.37808  93.04740  72.75656  92.84979  72.74624  91.87978  78.36776  92.07767
      15  75.55185  91.49336         13.48959   2.017575  78.36776  92.07767  72.74624  91.87978  72.73597  90.90887  78.35748  91.10704
      15  75.54161  90.52214         13.49997   2.020454  78.35748  91.10704  72.73597  90.90887  72.72576  89.93705  78.34726  90.13551
      15  75.53142  89.55000         13.51036   2.023336  78.34726  90.13551  72.72576  89.93705  72.71560  88.96432  78.33709  89.16306
      15  75.52128  88.57696         13.52075   2.026221  78.33709  89.16306  72.71560  88.96432  72.70550  87.99068  78.32697  88.18971
      15  75.51120  87.60301         13.53116   2.029110  78.32697  88.18971  72.70550  87.99068  72.69544  87.01614  78.31691  87.21544
      15  75.50117  86.62815         13.54157   2.032002  78.31691  87.21544  72.69544  87.01614  72.68545  86.04068  78.30690  86.24027
      15  75.49119  85.65238         13.55199   2.034897  78.30690  86.24027  72.68545  86.04068  72.67550  85.06431  78.29695  85.26418
      15  75.48127  84.67570         13.56242   2.037796  78.29695  85.26418  72.67550  85.06431  72.66561  84.08703  78.28705  84.28719
      15  75.47140  83.69810         13.57286   2.040698  78.28705  84.28719  72.66561  84.08703  72.65577  83.10883  78.27720  83.30927
      15  75.46158  82.71959         13.58330   2.043604  78.27720  83.30927  72.65577  83.10883  72.64599  82.12972  78.26741  82.33045
      15  75.45182  81.74016         13.59375   2.046512  78.26741  82.33045  72.64599  82.12972  72.63626  81.14969  78.25767  81.35071
      15  75.44212  80.75982         13.60421   2.049425  78.25767  81.35071  72.63626  81.14969  72.62658  80.16875  78.24798  80.37005
      15  75.43246  79.77856         13.61468   2.052340  78.24798  80.37005  72.62658  80.16875  72.61696  79.18688  78.23835  79.38847
      15  75.42286  78.79638         13.62516   2.055259  78.23835  79.38847  72.61696  79.18688  72.60740  78.20410  78.22877  78.40598
      15  75.41332  77.81328         13.63564   2.058181  78.22877  78.40598  72.60740  78.20410  72.59789  77.22040  78.21925  77.42257
      15  75.40383  76.82927         13.64614   2.061107  78.21925  77.42257  72.59789  77.22040  72.58843  76.23578  78.20979  76.43823
      15  75.39440  75.84433         13.65664   2.064036  78.20979  76.43823  72.58843  76.23578  72.57903  75.25024  78.20038  75.45298
      15  75.38502  74.85847         13.66715   2.066968  78.20038  75.45298  72.57903  75.25024  72.56968  74.26378  78.19102  74.46680
      15  75.37570  73.87169         13.67766   2.069904  78.19102  74.46680  72.56968  74.26378  72.56039  73.27639  78.18172  73.47970
      15  75.36643  72.88398         13.68819   2.072843  78.18172  73.47970  72.56039  73.27639  72.55116  72.28808  78.17247  72.49168
      15  75.35721  71.89535         13.69872   2.075786  78.17247  72.49168  72.55116  72.28808  72.54198  71.29884  78.16328  71.50273
      15  75.34806  70.90580         13.70926   2.078732  78.16328  71.50273  72.54198  71.29884  72.53285  70.30868  78.15415  70.51285
      15  75.33896  69.91531         13.71981   2.081681  78.15415  70.51285  72.53285  70.30868  72.52379  69.31758  78.14507  69.52205
      15  75.32991  68.92390         13.73037   2.084634  78.14507  69.52205  72.52379  69.31758  72.51477  68.32556  78.13605  68.53032
      15  75.32092  67.93156         13.74094   2.087590  78.13605  68.53032  72.51477  68.32556  72.50582  67.33262  78.12708  67.53766
      15  75.31199  66.93829         13.75151   2.090550  78.12708  67.53766  72.50582  67.33262  72.49692  66.33874  78.11817  66.54408
      15  75.30311  65.94410         13.76209   2.093513  78.11817  66.54408  72.49692  66.33874  72.48807  65.34393  78.10931  65.54956
      15  75.29429  64.94896         13.77268   2.096480  78.10931  65.54956  72.48807  65.34393  72.47929  64.34818  78.10052  64.55411
      15  75.28553  63.95290         13.78328   2.099450  78.10052  64.55411  72.47929  64.34818  72.47056  63.35151  78.09178  63.55772
      15  75.27682  62.95590         13.79389   2.102423  78.09178  63.55772  72.47056  63.35151  72.46188  62.35390  78.08309  62.56040
      15  75.26817  61.95797         13.80450   2.105400  78.08309  62.56040  72.46188  62.35390  72.45327  61.35536  78.07446  61.56215
      15  75.25957  60.95911         13.81513   2.108380  78.07446  61.56215  72.45327  61.35536  72.44471  60.35587  78.06589  60.56296
      15  75.25104  59.95930         13.82576   2.111364  78.06589  60.56296  72.44471  60.35587  72.43620  59.35546  78.05738  59.56284
      15  75.24256  58.95856         13.83640   2.114351  78.05738  59.56284  72.43620  59.35546  72.42776  58.35410  78.04893  58.56178
      15  75.23414  57.95689         13.84705   2.117342  78.04893  58.56178  72.42776  58.35410  72.41937  57.35181  78.04053  57.55978
      15  75.22577  56.95427         13.85770   2.120336  78.04053  57.55978  72.41937  57.35181  72.41104  56.34857  78.03219  56.55683
      15  75.21747  55.95071         13.86836   2.123334  78.03219  56.55683  72.41104  56.34857  72.40277  55.34440  78.02390  55.55295
      15  75.20922  54.94621         13.87904   2.126335  78.02390  55.55295  72.40277  55.34440  72.39456  54.33928  78.01568  54.54813
      15  75.20103  53.94077         13.88972   2.129340  78.01568  54.54813  72.39456  54.33928  72.38640  53.33322  78.00751  53.54236
      15  75.19290  52.93438         13.90041   2.132348  78.00751  53.54236  72.38640  53.33322  72.37830  52.32621  77.99940  52.53566
      15  75.18482  51.92706         13.91110   2.135360  77.99940  52.53566  72.37830  52.32621  72.37027  51.31826  77.99135  51.52800
      15  75.17681  50.91878         13.92181   2.138375  77.99135  51.52800  72.37027  51.31826  72.36229  50.30937  77.98336  50.51940
      15  75.16885  49.90956         13.93252   2.141393  77.98336  50.51940  72.36229  50.30937  72.35436  49.29953  77.97543  49.50986
      15  75.16095  48.89939         13.94324   2.144415  77.97543  49.50986  72.35436  49.29953  72.34650  48.28874  77.96756  48.49936
      15  75.15312  47.88828         13.95397   2.147441  77.96756  48.49936  72.34650  48.28874  72.33870  47.27700  77.95974  47.48792
      15  75.14534  46.87621         13.96471   2.150470  77.95974  47.48792  72.33870  47.27700  72.33095  46.26431  77.95198  46.47553
      15  75.13761  45.86320         13.97546   2.153503  77.95198  46.47553  72.33095  46.26431  72.32327  45.25067  77.94429  45.46219
      15  75.12995  44.84923         13.98621   2.156539  77.94429  45.46219  72.32327  45.25067  72.31564  44.23608  77.93665  44.44790
      15  75.12235  43.83431         13.99697   2.159579  77.93665  44.44790  72.31564  44.23608  72.30807  43.22053  77.92907  43.43265
      15  75.11481  42.81844         14.00774   2.162622  77.92907  43.43265  72.30807  43.22053  72.30057  42.20404  77.92155  42.41645
      15  75.10733  41.80161         14.01852   2.165669  77.92155  42.41645  72.30057  42.20404  72.29312  41.18658  77.91410  41.39930
      15  75.09990  40.78383         14.02931   2.168720  77.91410  41.39930  72.29312  41.18658  72.28573  40.16818  77.90670  40.38119
      15  75.09254  39.76510         14.04011   2.171774  77.90670  40.38119  72.28573  40.16818  72.27841  39.14881  77.89936  39.36212
      15  75.08524  38.74540         14.05091   2.174831  77.89936  39.36212  72.27841  39.14881  72.27114  38.12849  77.89208  38.34210
      15  75.07800  37.72475         14.06172   2.177892  77.89208  38.34210  72.27114  38.12849  72.26393  37.10720  77.88486  37.32112
      15  75.07081  36.70314         14.07254   2.180957  77.88486  37.32112  72.26393  37.10720  72.25679  36.08496  77.87771  36.29918
      15  75.06369  35.68056         14.08337   2.184025  77.87771  36.29918  72.25679  36.08496  72.24970  35.06176  77.87061  35.27627
      15  75.05663  34.65703         14.09421   2.187097  77.87061  35.27627  72.24970  35.06176  72.24268  34.03759  77.86357  34.25241
      15  75.04963  33.63254         14.10506   2.190172  77.86357  34.25241  72.24268  34.03759  72.23572  33.01247  77.85660  33.22758
      15  75.04270  32.60708         14.11591   2.193251  77.85660  33.22758  72.23572  33.01247  72.22881  31.98637  77.84969  32.20179
      15  75.03582  31.58065         14.12677   2.196334  77.84969  32.20179  72.22881  31.98637  72.22197  30.95932  77.84283  31.17504
      15  75.02900  30.55327         14.13764   2.199420  77.84283  31.17504  72.22197  30.95932  72.21519  29.93130  77.83604  30.14732
      15  75.02225  29.52491         14.14852   2.202510  77.83604  30.14732  72.21519  29.93130  72.20848  28.90231  77.82932  29.11864
      15  75.01556  28.49559         14.15941   2.205603  77.82932  29.11864  72.20848  28.90231  72.20182  27.87235  77.82265  28.08898
      15  75.00893  27.46530         14.17031   2.208700  77.82265  28.08898  72.20182  27.87235  72.19523  26.84142  77.81604  27.05836
      15  75.00236  26.43404         14.18121   2.211801  77.81604  27.05836  72.19523  26.84142  72.18870  25.80953  77.80950  26.02677
      15  74.99585  25.40181         14.19213   2.214905  77.80950  26.02677  72.18870  25.80953  72.18223  24.77666  77.80302  24.99421
      15  74.98941  24.36861         14.20305   2.218013  77.80302  24.99421  72.18223  24.77666  72.17582  23.74282  77.79660  23.96067
      15  74.98303  23.33444         14.21398   2.221125  77.79660  23.96067  72.17582  23.74282  72.16948  22.70801  77.79024  22.92616
      15  74.97671  22.29929         14.22491   2.224240  77.79024  22.92616  72.16948  22.70801  72.16319  21.67222  77.78395  21.89068
      15  74.97045  21.26317         14.23586   2.227359  77.78395  21.89068  72.16319  21.67222  72.15698  20.63546  77.77772  20.85423
      15  74.96426  20.22607         14.24682   2.230481  77.77772  20.85423  72.15698  20.63546  72.15082  19.59772  77.77155  19.81680
      15  74.95813  19.18800         14.25778   2.233607  77.77155  19.81680  72.15082  19.59772  72.14473  18.55901  77.76545  18.77839
      15  74.95206  18.14895         14.26875   2.236737  77.76545  18.77839  72.14473  18.55901  72.13870  17.51931  77.75941  17.73900
      15  74.94606  17.10892         14.27973   2.239870  77.75941  17.73900  72.13870  17.51931  72.13273  16.47864  77.75343  16.69864
      15  74.94012  16.06791         14.29072   2.243007  77.75343  16.69864  72.13273  16.47864  72.12683  15.43699  77.74751  15.65730
      15  74.93424  15.02593         14.30172   2.246148  77.74751  15.65730  72.12683  15.43699  72.12099  14.39436  77.74166  14.61497
      15  74.92843  13.98296         14.31272   2.249293  77.74166  14.61497  72.12099  14.39436  72.11522  13.35074  77.73588  13.57166
      15  74.92268  12.93900         14.32374   2.252441  77.73588  13.57166  72.11522  13.35074  72.10951  12.30614  77.73015  12.52737
      15  74.91699  11.89407         14.33476   2.255593  77.73015  12.52737  72.10951  12.30614  72.10386  11.26056  77.72449  11.48210
      15  74.91137  10.84814         14.34579   2.258748  77.72449  11.48210  72.10386  11.26056  72.09828  10.21399  77.71890  10.43584
      15  74.90582   9.80124         14.35683   2.261907  77.71890  10.43584  72.09828  10.21399  72.09276   9.16644  77.71337   9.38860
      15  74.90033   8.75334         14.36788   2.265070  77.71337   9.38860  72.09276   9.16644  72.08731   8.11789  77.70791   8.34036
      15  74.89490   7.70446         14.37893   2.268237  77.70791   8.34036  72.08731   8.11789  72.08192   7.06836  77.70251   7.29114
      15  74.88954   6.65459         14.39000   2.271408  77.70251   7.29114  72.08192   7.06836  72.07660   6.01784  77.69717   6.24093
      15  74.88424   5.60373         14.40107   2.274582  77.69717   6.24093  72.07660   6.01784  72.07134   4.96633  77.69190   5.18973
      15  74.87901   4.55188         14.41215   2.277759  77.69190   5.18973  72.07134   4.96633  72.06615   3.91383  77.68670   4.13754
      15  74.87385   3.49904         14.42324   2.280941  77.68670   4.13754  72.06615   3.91383  72.06102   2.86033  77.68156   3.08436
      15  74.86875   2.44520         14.43434   2.284126  77.68156   3.08436  72.06102   2.86033  72.05596   1.80584  77.67648   2.03018
      15  74.86371   1.39037         14.44545   2.287315  77.67648   2.03018  72.05596   1.80584  72.05096   0.75036  77.67147   0.97501
      15  74.85874   0.33455         14.45657   2.290508  77.67147   0.97501  72.05096   0.75036  72.04603  -0.30612  77.66653  -0.08115
      14  63.38596 127.73786         14.01852   2.286246  66.20618 128.31872  60.58565 128.09448  60.56575 127.15680  66.18627 127.38134
      14  63.36608 126.79989         14.02931   2.289356  66.18627 127.38134  60.56575 127.15680  60.54590 126.21824  66.16640 126.44309
      14  63.34624 125.86105         14.04011   2.292470  66.16640 126.44309  60.54590 126.21824  60.52609 125.27881  66.14658 125.50397
      14  63.32644 124.92133         14.05091   2.295588  66.14658 125.50397  60.52609 125.27881  60.50632 124.33850  66.12680 124.56396
      14  63.30668 123.98074         14.06172   2.298710  66.12680 124.56396  60.50632 124.33850  60.48659 123.39732  66.10705 123.62309
      14  63.28697 123.03927         14.07254   2.301835  66.10705 123.62309  60.48659 123.39732  60.46690 122.45526  66.08735 122.68133
      14  63.26729 122.09692         14.08337   2.304965  66.08735 122.68133  60.46690 122.45526  60.44725 121.51232  66.06770 121.73870
      14  63.24766 121.15369         14.09421   2.308098  66.06770 121.73870  60.44725 121.51232  60.42765 120.56850  66.04808 120.79519
      14  63.22808 120.20959         14.10506   2.311235  66.04808 120.79519  60.42765 120.56850  60.40809 119.62380  66.02851 119.85079
      14  63.20853 119.26460         14.11591   2.314376  66.02851 119.85079  60.40809 119.62380  60.38857 118.67822  66.00898 118.90552
      14  63.18903 118.31873         14.12677   2.317521  66.00898 118.90552  60.38857 118.67822  60.36910 117.73175  65.98949 117.95937
      14  63.16957 117.37198         14.13764   2.320669  65.98949 117.95937  60.36910 117.73175  60.34967 116.78441  65.97005 117.01233
      14  63.15015 116.42435         14.14852   2.323822  65.97005 117.01233  60.34967 116.78441  60.33028 115.83618  65.95064 116.06441
      14  63.13078 115.47583         14.15941   2.326978  65.95064 116.06441  60.33028 115.83618  60.31093 114.88706  65.93128 115.11561
      14  63.11144 114.52643         14.17031   2.330138  65.93128 115.11561  60.31093 114.88706  60.29162 113.93706  65.91197 114.16592
      14  63.09216 113.57614         14.18121   2.333302  65.91197 114.16592  60.29162 113.93706  60.27236 112.98618  65.89269 113.21534
      14  63.07291 112.62497         14.19213   2.336470  65.89269 113.21534  60.27236 112.98618  60.25315 112.03440  65.87346 112.26388
      14  63.05371 111.67291         14.20305   2.339642  65.87346 112.26388  60.25315 112.03440  60.23397 111.08174  65.85428 111.31153
      14  63.03455 110.71995         14.21398   2.342818  65.85428 111.31153  60.23397 111.08174  60.21484 110.12819  65.83513 110.35829
      14  63.01543 109.76611         14.22491   2.345997  65.83513 110.35829  60.21484 110.12819  60.19576 109.17375  65.81604 109.40415
      14  62.99636 108.81138         14.23586   2.349181  65.81604 109.40415  60.19576 109.17375  60.17671 108.21841  65.79698 108.44913
      14  62.97734 107.85576         14.24682   2.352368  65.79698 108.44913  60.17671 108.21841  60.15771 107.26219  65.77797 107.49322
      14  62.95835 106.89924         14.25778   2.355560  65.77797 107.49322  60.15771 107.26219  60.13876 106.30507  65.75900 106.53641
      14  62.93941 105.94183         14.26875   2.358755  65.75900 106.53641  60.13876 106.30507  60.11985 105.34705  65.74008 105.57872
      14  62.92052 104.98353         14.27973   2.361954  65.74008 105.57872  60.11985 105.34705  60.10098 104.38815  65.72120 104.62012
      14  62.90167 104.02433         14.29072   2.365157  65.72120 104.62012  60.10098 104.38815  60.08216 103.42834  65.70236 103.66063
      14  62.88286 103.06424         14.30172   2.368364  65.70236 103.66063  60.08216 103.42834  60.06338 102.46764  65.68357 102.70025
      14  62.86410 102.10324         14.31272   2.371575  65.68357 102.70025  60.06338 102.46764  60.04465 101.50604  65.66483 101.73896
      14  62.84539 101.14135         14.32374   2.374790  65.66483 101.73896  60.04465 101.50604  60.02596 100.54355  65.64613 100.77678
      14  62.82671 100.17856         14.33476   2.378009  65.64613 100.77678  60.02596 100.54355  60.00732  99.58015  65.62747  99.81370
      14  62.80809  99.21487         14.34579   2.381232  65.62747  99.81370  60.00732  99.58015  59.98872  98.61585  65.60886  98.84972
      14  62.78950  98.25028         14.35683   2.384459  65.60886  98.84972  59.98872  98.61585  59.97017  97.65065  65.59029  97.88484
      14  62.77097  97.28479         14.36788   2.387690  65.59029  97.88484  59.97017  97.65065  59.95166  96.68455  65.57177  96.91905
      14  62.75248  96.31840         14.37893   2.390925  65.57177  96.91905  59.95166  96.68455  59.93320  95.71755  65.55330  95.95237
      14  62.73403  95.35110         14.39000   2.394163  65.55330  95.95237  59.93320  95.71755  59.91479  94.74964  65.53487  94.98477
      14  62.71563  94.38290         14.40107   2.397406  65.53487  94.98477  59.91479  94.74964  59.89642  93.78082  65.51649  94.01628
      14  62.69728  93.41379         14.41215   2.400653  65.51649  94.01628  59.89642  93.78082  59.87809  92.81110  65.49815  93.04688
      14  62.67897  92.44378         14.42324   2.403904  65.49815  93.04688  59.87809  92.81110  59.85981  91.84047  65.47986  92.07657
      14  62.66071  91.47285         14.43434   2.407159  65.47986  92.07657  59.85981  91.84047  59.84158  90.86894  65.46161  91.10535
      14  62.64249  90.50102         14.44545   2.410417  65.46161  91.10535  59.84158  90.86894  59.82339  89.89649  65.44341  90.13323
      14  62.62432  89.52828         14.45657   2.413680  65.44341  90.13323  59.82339  89.89649  59.80525  88.92314  65.42526  89.16019
      14  62.60620  88.55463         14.46769   2.416947  65.42526  89.16019  59.80525  88.92314  59.78716  87.94887  65.40715  88.18625
      14  62.58812  87.58007         14.47883   2.420218  65.40715  88.18625  59.78716  87.94887  59.76911  86.97370  65.38909  87.21139
      14  62.57009  86.60460         14.48997   2.423493  65.38909  87.21139  59.76911  86.97370  59.75111  85.99760  65.37108  86.23562
      14  62.55211  85.62821         14.50112   2.426772  65.37108  86.23562  59.75111  85.99760  59.73316  85.02060  65.35311  85.25894
      14  62.53417  84.65091         14.51228   2.430055  65.35311  85.25894  59.73316  85.02060  59.71525  84.04268  65.33519  84.28134
      14  62.51628  83.67269         14.52344   2.433342  65.33519  84.28134  59.71525  84.04268  59.69739  83.06385  65.31732  83.30283
      14  62.49844  82.69356         14.53462   2.436633  65.31732  83.30283  59.69739  83.06385  59.67958  82.08409  65.29949  82.32340
      14  62.48064  81.71351         14.54580   2.439928  65.29949  82.32340  59.67958  82.08409  59.66182  81.10343  65.28171  81.34305
      14  62.46289  80.73255         14.55700   2.443228  65.28171  81.34305  59.66182  81.10343  59.64410  80.12184  65.26398  80.36179
      14  62.44519  79.75066         14.56820   2.446531  65.26398  80.36179  59.64410  80.12184  59.62643  79.13933  65.24630  79.37961
      14  62.42754  78.76786         14.57941   2.449839  65.24630  79.37961  59.62643  79.13933  59.60881  78.15590  65.22866  78.39650
      14  62.40994  77.78413         14.59063   2.453150  65.22866  78.39650  59.60881  78.15590  59.59124  77.17155  65.21107  77.41248
      14  62.39238  76.79948         14.60186   2.456466  65.21107  77.41248  59.59124  77.17155  59.57371  76.18628  65.19353  76.42753
      14  62.37487  75.81391         14.61309   2.459786  65.19353  76.42753  59.57371  76.18628  59.55623  75.20009  65.17604  75.44166
      14  62.35741  74.82742         14.62434   2.463110  65.17604  75.44166  59.55623  75.20009  59.53880  74.21297  65.15860  74.45487
      14  62.34000  73.84000         14.63559   2.466438  65.15860  74.45487  59.53880  74.21297  59.52142  73.22492  65.14120  73.46715
      14  62.32264  72.85165         14.64686   2.469770  65.14120  73.46715  59.52142  73.22492  59.50409  72.23595  65.12386  72.47851
      14  62.30532  71.86238         14.65813   2.473106  65.12386  72.47851  59.50409  72.23595  59.48681  71.24605  65.10656  71.48894
      14  62.28805  70.87219         14.66941   2.476446  65.10656  71.48894  59.48681  71.24605  59.46957  70.25523  65.08931  70.49844
      14  62.27084  69.88106         14.68070   2.479791  65.08931  70.49844  59.46957  70.25523  59.45239  69.26347  65.07211  69.50701
      14  62.25367  68.88900         14.69199   2.483140  65.07211  69.50701  59.45239  69.26347  59.43525  68.27078  65.05496  68.51465
      14  62.23655  67.89601         14.70330   2.486492  65.05496  68.51465  59.43525  68.27078  59.41816  67.27717  65.03786  67.52137
      14  62.21948  66.90210         14.71461   2.489849  65.03786  67.52137  59.41816  67.27717  59.40112  66.28262  65.02081  66.52715
      14  62.20246  65.90724         14.72594   2.493211  65.02081  66.52715  59.40112  66.28262  59.38413  65.28714  65.00380  65.53199
      14  62.18549  64.91146         14.73727   2.496576  65.00380  65.53199  59.38413  65.28714  59.36720  64.29072  64.98685  64.53591
      14  62.16857  63.91474         14.74861   2.499945  64.98685  64.53591  59.36720  64.29072  59.35031  63.29337  64.96995  63.53889
      14  62.15169  62.91709         14.75996   2.503319  64.96995  63.53889  59.35031  63.29337  59.33347  62.29508  64.95309  62.54093
      14  62.13487  61.91850         14.77132   2.506697  64.95309  62.54093  59.33347  62.29508  59.31668  61.29586  64.93629  61.54204
      14  62.11810  60.91897         14.78268   2.510079  64.93629  61.54204  59.31668  61.29586  59.29994  60.29569  64.91953  60.54221
      14  62.10138  59.91850         14.79406   2.513465  64.91953  60.54221  59.29994  60.29569  59.28325  59.29459  64.90283  59.54144
      14  62.08471  58.91710         14.80544   2.516856  64.90283  59.54144  59.28325  59.29459  59.26661  58.29255  64.88618  58.53973
      14  62.06809  57.91475         14.81684   2.520251  64.88618  58.53973  59.26661  58.29255  59.25002  57.28957  64.86958  57.53708
      14  62.05152  56.91147         14.82824   2.523650  64.86958  57.53708  59.25002  57.28957  59.23349  56.28564  64.85302  56.53349
      14  62.03500  55.90724         14.83965   2.527053  64.85302  56.53349  59.23349  56.28564  59.21700  55.28078  64.83652  55.52896
      14  62.01853  54.90207         14.85107   2.530460  64.83652  55.52896  59.21700  55.28078  59.20056  54.27497  64.82007  54.52348
      14  62.00211  53.89595         14.86250   2.533872  64.82007  54.52348  59.20056  54.27497  59.18418  53.26821  64.80367  53.51706
      14  61.98575  52.88889         14.87393   2.537288  64.80367  53.51706  59.18418  53.26821  59.16785  52.26051  64.78733  52.50969
      14  61.96943  51.88088         14.88538   2.540708  64.78733  52.50969  59.16785  52.26051  59.15157  51.25186  64.77103  51.50138
      14  61.95317  50.87193         14.89684   2.544132  64.77103  51.50138  59.15157  51.25186  59.13534  50.24226  64.75478  50.49212
      14  61.93696  49.86202         14.90830   2.547561  64.75478  50.49212  59.13534  50.24226  59.11916  49.23172  64.73859  49.48191
      14  61.92080  48.85117         14.91977   2.550994  64.73859  49.48191  59.11916  49.23172  59.10303  48.22022  64.72245  48.47075
      14  61.90469  47.83937         14.93125   2.554431  64.72245  48.47075  59.10303  48.22022  59.08696  47.20778  64.70636  47.45864
      14  61.88864  46.82662         14.94274   2.557873  64.70636  47.45864  59.08696  47.20778  59.07093  46.19438  64.69032  46.44558
      14  61.87263  45.81291         14.95424   2.561319  64.69032  46.44558  59.07093  46.19438  59.05496  45.18003  64.67434  45.43157
      14  61.85668  44.79825         14.96575   2.564769  64.67434  45.43157  59.05496  45.18003  59.03905  44.16472  64.65840  44.41660
      14  61.84078  43.78264         14.97727   2.568223  64.65840  44.41660  59.03905  44.16472  59.02318  43.14846  64.64252  43.40068
      14  61.82493  42.76607         14.98879   2.571682  64.64252  43.40068  59.02318  43.14846  59.00737  42.13125  64.62670  42.38381
      14  61.80914  41.74855         15.00032   2.575145  64.62670  42.38381  59.00737  42.13125  58.99161  41.11308  64.61092  41.36598
      14  61.79340  40.73007         15.01187   2.578612  64.61092  41.36598  58.99161  41.11308  58.97590  40.09395  64.59520  40.34719
      14  61.77771  39.71063         15.02342   2.582084  64.59520  40.34719  58.97590  40.09395  58.96025  39.07386  64.57953  39.32744
      14  61.76208  38.69023         15.03498   2.585560  64.57953  39.32744  58.96025  39.07386  58.94465  38.05281  64.56391  38.30673
      14  61.74650  37.66887         15.04655   2.589040  64.56391  38.30673  58.94465  38.05281  58.92910  37.03080  64.54835  37.28506
      14  61.73097  36.64655         15.05813   2.592525  64.54835  37.28506  58.92910  37.03080  58.91361  36.00783  64.53284  36.26243
      14  61.71549  35.62327         15.06972   2.596014  64.53284  36.26243  58.91361  36.00783  58.89817  34.98389  64.51739  35.23884
      14  61.70007  34.59903         15.08131   2.599508  64.51739  35.23884  58.89817  34.98389  58.88278  33.95900  64.50198  34.21429
      14  61.68470  33.57382         15.09292   2.603005  64.50198  34.21429  58.88278  33.95900  58.86745  32.93313  64.48664  33.18877
      14  61.66939  32.54764         15.10453   2.606508  64.48664  33.18877  58.86745  32.93313  58.85217  31.90630  64.47134  32.16228
      14  61.65413  31.52050         15.11616   2.610014  64.47134  32.16228  58.85217  31.90630  58.83695  30.87851  64.45610  31.13483
      14  61.63893  30.49239         15.12779   2.613525  64.45610  31.13483  58.83695  30.87851  58.82178  29.84974  64.44092  30.10641
      14  61.62378  29.46332         15.13943   2.617040  64.44092  30.10641  58.82178  29.84974  58.80666  28.82001  64.42579  29.07702
      14  61.60868  28.43327         15.15108   2.620560  64.42579  29.07702  58.80666  28.82001  58.79160  27.78931  64.41071  28.04666
      14  61.59364  27.40226         15.16274   2.624084  64.41071  28.04666  58.79160  27.78931  58.77659  26.75763  64.39569  27.01533
      14  61.57865  26.37027         15.17441   2.627613  64.39569  27.01533  58.77659  26.75763  58.76164  25.72499  64.38072  25.98303
      14  61.56372  25.33731         15.18609   2.631146  64.38072  25.98303  58.76164  25.72499  58.74675  24.69137  64.36581  24.94976
      14  61.54885  24.30338         15.19777   2.634683  64.36581  24.94976  58.74675  24.69137  58.73191  23.65677  64.35095  23.91552
      14  61.53402  23.26847         15.20947   2.638225  64.35095  23.91552  58.73191  23.65677  58.71712  22.62121  64.33615  22.88030
      14  61.51926  22.23259         15.22117   2.641772  64.33615  22.88030  58.71712  22.62121  58.70239  21.58466  64.32141  21.84410
      14  61.50455  21.19573         15.23288   2.645322  64.32141  21.84410  58.70239  21.58466  58.68772  20.54714  64.30672  20.80693
      14  61.48990  20.15789         15.24461   2.648878  64.30672  20.80693  58.68772  20.54714  58.67310  19.50864  64.29208  19.76877
      14  61.47530  19.11908         15.25634   2.652437  64.29208  19.76877  58.67310  19.50864  58.65854  18.46916  64.27750  18.72965
      14  61.46075  18.07928         15.26808   2.656001  64.27750  18.72965  58.65854  18.46916  58.64403  17.42870  64.26298  17.68954
      14  61.44627  17.03851         15.27983   2.659570  64.26298  17.68954  58.64403  17.42870  58.62958  16.38726  64.24851  16.64845
      14  61.43184  15.99675         15.29158   2.663143  64.24851  16.64845  58.62958  16.38726  58.61519  15.34484  64.23410  15.60637
      14  61.41746  14.95401         15.30335   2.666721  64.23410  15.60637  58.61519  15.34484  58.60085  14.30143  64.21975  14.56332
      14  61.40315  13.91029         15.31513   2.670303  64.21975  14.56332  58.60085  14.30143  58.58657  13.25704  64.20545  13.51928
      14  61.38889  12.86558         15.32691   2.673889  64.20545  13.51928  58.58657  13.25704  58.57235  12.21167  64.19121  12.47425
      14  61.37468  11.81989         15.33871   2.677480  64.19121  12.47425  58.57235  12.21167  58.55818  11.16530  64.17703  11.42824
      14  61.36054  10.77321         15.35051   2.681076  64.17703  11.42824  58.55818  11.16530  58.54407  10.11795  64.16291  10.38125
      14  61.34645   9.72554         15.36232   2.684676  64.16291  10.38125  58.54407  10.11795  58.53002   9.06961  64.14884   9.33326
      14  61.33242   8.67689         15.37415   2.688281  64.14884   9.33326  58.53002   9.06961  58.51602   8.02029  64.13483   8.28429
      14  61.31844   7.62724         15.38598   2.691890  64.13483   8.28429  58.51602   8.02029  58.50209   6.96997  64.12087   7.23432
      14  61.30453   6.57660         15.39782   2.695504  64.12087   7.23432  58.50209   6.96997  58.48821   5.91866  64.10698   6.18337
      14  61.29067   5.52497         15.40967   2.699122  64.10698   6.18337  58.48821   5.91866  58.47439   4.86635  64.09314   5.13142
      14  61.27687   4.47235         15.42152   2.702745  64.09314   5.13142  58.47439   4.86635  58.46062   3.81306  64.07936   4.07848
      14  61.26312   3.41873         15.43339   2.706372  64.07936   4.07848  58.46062   3.81306  58.44692   2.75877  64.06563   3.02454
      14  61.24944   2.36412         15.44527   2.710004  64.06563   3.02454  58.44692   2.75877  58.43327   1.70348  64.05197   1.96961
      14  61.23581   1.30851         15.45715   2.713641  64.05197   1.96961  58.43327   1.70348  58.41968   0.64719  64.03837   0.91368
      14  61.22225   0.25191         15.46905   2.717282  64.03837   0.91368  58.41968   0.64719  58.40615  -0.41009  64.02482  -0.14324
      13  48.92957 128.00371         15.06972   2.716289  51.75331 128.60588  46.13463 128.33948  46.10585 127.40133  51.72452 127.66808
      13  48.90081 127.06530         15.08131   2.719849  51.72452 127.66808  46.10585 127.40133  46.07711 126.46230  51.69577 126.72940
      13  48.87208 126.12600         15.09292   2.723413  51.69577 126.72940  46.07711 126.46230  46.04841 125.52240  51.66705 125.78984
      13  48.84338 125.18584         15.10453   2.726981  51.66705 125.78984  46.04841 125.52240  46.01974 124.58161  51.63836 124.84941
      13  48.81472 124.24479         15.11616   2.730553  51.63836 124.84941  46.01974 124.58161  45.99110 123.63995  51.60971 123.90810
      13  48.78609 123.30286         15.12779   2.734129  51.60971 123.90810  45.99110 123.63995  45.96250 122.69741  51.58109 122.96591
      13  48.75750 122.36006         15.13943   2.737708  51.58109 122.96591  45.96250 122.69741  45.93393 121.75399  51.55250 122.02284
      13  48.72894 121.41637         15.15108   2.741292  51.55250 122.02284  45.93393 121.75399  45.90540 120.80969  51.52395 121.07889
      13  48.70041 120.47180         15.16274   2.744879  51.52395 121.07889  45.90540 120.80969  45.87690 119.86451  51.49544 120.13406
      13  48.67192 119.52635         15.17441   2.748471  51.49544 120.13406  45.87690 119.86451  45.84844 118.91844  51.46696 119.18834
      13  48.64347 118.58002         15.18609   2.752066  51.46696 119.18834  45.84844 118.91844  45.82001 117.97149  51.43851 118.24174
      13  48.61505 117.63280         15.19777   2.755666  51.43851 118.24174  45.82001 117.97149  45.79161 117.02365  51.41010 117.29426
      13  48.58667 116.68470         15.20947   2.759269  51.41010 117.29426  45.79161 117.02365  45.76325 116.07493  51.38172 116.34589
      13  48.55832 115.73571         15.22117   2.762877  51.38172 116.34589  45.76325 116.07493  45.73493 115.12532  51.35338 115.39664
      13  48.53000 114.78584         15.23288   2.766488  51.35338 115.39664  45.73493 115.12532  45.70664 114.17482  51.32508 114.44649
      13  48.50172 113.83507         15.24461   2.770104  51.32508 114.44649  45.70664 114.17482  45.67839 113.22344  51.29681 113.49546
      13  48.47348 112.88342         15.25634   2.773723  51.29681 113.49546  45.67839 113.22344  45.65018 112.27116  51.26858 112.54354
      13  48.44527 111.93088         15.26808   2.777346  51.26858 112.54354  45.65018 112.27116  45.62199 111.31800  51.24038 111.59074
      13  48.41710 110.97745         15.27983   2.780974  51.24038 111.59074  45.62199 111.31800  45.59385 110.36394  51.21222 110.63704
      13  48.38897 110.02312         15.29158   2.784605  51.21222 110.63704  45.59385 110.36394  45.56574 109.40899  51.18409 109.68244
      13  48.36087 109.06791         15.30335   2.788241  51.18409 109.68244  45.56574 109.40899  45.53767 108.45315  51.15600 108.72696
      13  48.33280 108.11180         15.31513   2.791880  51.15600 108.72696  45.53767 108.45315  45.50963 107.49642  51.12795 107.77058
      13  48.30478 107.15479         15.32691   2.795524  51.12795 107.77058  45.50963 107.49642  45.48163 106.53879  51.09993 106.81331
      13  48.27679 106.19689         15.33871   2.799171  51.09993 106.81331  45.48163 106.53879  45.45367 105.58026  51.07195 105.85514
      13  48.24883 105.23809         15.35051   2.802823  51.07195 105.85514  45.45367 105.58026  45.42574 104.62083  51.04400 104.89607
      13  48.22091 104.27840         15.36232   2.806478  51.04400 104.89607  45.42574 104.62083  45.39785 103.66051  51.01609 103.93611
      13  48.19303 103.31781         15.37415   2.810138  51.01609 103.93611  45.39785 103.66051  45.37000 102.69929  50.98822 102.97525
      13  48.16519 102.35632         15.38598   2.813802  50.98822 102.97525  45.37000 102.69929  45.34218 101.73717  50.96039 102.01348
      13  48.13738 101.39393         15.39782   2.817470  50.96039 102.01348  45.34218 101.73717  45.31440 100.77415  50.93259 101.05082
      13  48.10961 100.43064         15.40967   2.821142  50.93259 101.05082  45.31440 100.77415  45.28666  99.81023  50.90483 100.08726
      13  48.08188  99.46644         15.42152   2.824818  50.90483 100.08726  45.28666  99.81023  45.25895  98.84540  50.87711  99.12280
      13  48.05418  98.50135         15.43339   2.828498  50.87711  99.12280  45.25895  98.84540  45.23128  97.87967  50.84942  98.15743
      13  48.02653  97.53534         15.44527   2.832182  50.84942  98.15743  45.23128  97.87967  45.20365  96.91304  50.82177  97.19116
      13  47.99890  96.56844         15.45715   2.835870  50.82177  97.19116  45.20365  96.91304  45.17606  95.94550  50.79416  96.22398
      13  47.97132  95.60063         15.46905   2.839562  50.79416  96.22398  45.17606  95.94550  45.14851  94.97706  50.76659  95.25590
      13  47.94378  94.63191         15.48095   2.843259  50.76659  95.25590  45.14851  94.97706  45.12099  94.00770  50.73905  94.28691
      13  47.91627  93.66229         15.49286   2.846959  50.73905  94.28691  45.12099  94.00770  45.09351  93.03744  50.71156  93.31701
      13  47.88880  92.69175         15.50479   2.850664  50.71156  93.31701  45.09351  93.03744  45.06607  92.06627  50.68410  92.34620
      13  47.86137  91.72031         15.51672   2.854373  50.68410  92.34620  45.06607  92.06627  45.03867  91.09419  50.65668  91.37449
      13  47.83398  90.74796         15.52866   2.858085  50.65668  91.37449  45.03867  91.09419  45.01130  90.12120  50.62930  90.40186
      13  47.80662  89.77469         15.54061   2.861802  50.62930  90.40186  45.01130  90.12120  44.98398  89.14730  50.60195  89.42832
      13  47.77931  88.80051         15.55257   2.865524  50.60195  89.42832  44.98398  89.14730  44.95669  88.17248  50.57465  88.45387
      13  47.75203  87.82542         15.56454   2.869249  50.57465  88.45387  44.95669  88.17248  44.92944  87.19675  50.54738  87.47850
      13  47.72479  86.84942         15.57651   2.872978  50.54738  87.47850  44.92944  87.19675  44.90223  86.22011  50.52015  86.50223
      13  47.69759  85.87250         15.58850   2.876712  50.52015  86.50223  44.90223  86.22011  44.87506  85.24255  50.49296  85.52503
      13  47.67043  84.89466         15.60049   2.880450  50.49296  85.52503  44.87506  85.24255  44.84793  84.26407  50.46581  84.54692
      13  47.64331  83.91591         15.61250   2.884191  50.46581  84.54692  44.84793  84.26407  44.82083  83.28467  50.43870  83.56789
      13  47.61623  82.93624         15.62451   2.887937  50.43870  83.56789  44.82083  83.28467  44.79378  82.30436  50.41163  82.58794
      13  47.58919  81.95565         15.63654   2.891688  50.41163  82.58794  44.79378  82.30436  44.76677  81.32312  50.38460  81.60708
      13  47.56218  80.97414         15.64857   2.895442  50.38460  81.60708  44.76677  81.32312  44.73979  80.34097  50.35760  80.62529
      13  47.53522  79.99171         15.66061   2.899201  50.35760  80.62529  44.73979  80.34097  44.71286  79.35789  50.33065  79.64258
      13  47.50830  79.00835         15.67266   2.902963  50.33065  79.64258  44.71286  79.35789  44.68597  78.37389  50.30374  78.65895
      13  47.48141  78.02408         15.68472   2.906730  50.30374  78.65895  44.68597  78.37389  44.65911  77.38897  50.27686  77.67440
      13  47.45457  77.03888         15.69679   2.910502  50.27686  77.67440  44.65911  77.38897  44.63230  76.40312  50.25003  76.68892
      13  47.42776  76.05275         15.70887   2.914277  50.25003  76.68892  44.63230  76.40312  44.60552  75.41635  50.22324  75.70252
      13  47.40100  75.06570         15.72096   2.918057  50.22324  75.70252  44.60552  75.41635  44.57879  74.42865  50.19648  74.71519
      13  47.37428  74.07772         15.73306   2.921840  50.19648  74.71519  44.57879  74.42865  44.55209  73.44003  50.16977  73.72694
      13  47.34759  73.08882         15.74517   2.925628  50.16977  73.72694  44.55209  73.44003  44.52544  72.45047  50.14310  72.73775
      13  47.32095  72.09898         15.75728   2.929421  50.14310  72.73775  44.52544  72.45047  44.49883  71.45999  50.11647  71.74764
      13  47.29435  71.10822         15.76941   2.933217  50.11647  71.74764  44.49883  71.45999  44.47226  70.46857  50.08988  70.75660
      13  47.26779  70.11653         15.78154   2.937018  50.08988  70.75660  44.47226  70.46857  44.44573  69.47623  50.06333  69.76463
      13  47.24127  69.12390         15.79369   2.940823  50.06333  69.76463  44.44573  69.47623  44.41924  68.48295  50.03682  68.77172
      13  47.21479  68.13034         15.80584   2.944632  50.03682  68.77172  44.41924  68.48295  44.39279  67.48874  50.01035  67.77788
      13  47.18836  67.13585         15.81800   2.948445  50.01035  67.77788  44.39279  67.48874  44.36638  66.49359  49.98393  66.78311
      13  47.16196  66.14043         15.83018   2.952263  49.98393  66.78311  44.36638  66.49359  44.34002  65.49751  49.95754  65.78741
      13  47.13561  65.14406         15.84236   2.956085  49.95754  65.78741  44.34002  65.49751  44.31369  64.50049  49.93120  64.79076
      13  47.10929  64.14677         15.85455   2.959911  49.93120  64.79076  44.31369  64.50049  44.28741  63.50254  49.90490  63.79318
      13  47.08302  63.14853         15.86675   2.963742  49.90490  63.79318  44.28741  63.50254  44.26117  62.50364  49.87864  62.79467
      13  47.05679  62.14935         15.87896   2.967577  49.87864  62.79467  44.26117  62.50364  44.23497  61.50381  49.85242  61.79521
      13  47.03061  61.14924         15.89118   2.971416  49.85242  61.79521  44.23497  61.50381  44.20882  60.50304  49.82625  60.79482
      13  47.00446  60.14819         15.90341   2.975259  49.82625  60.79482  44.20882  60.50304  44.18270  59.50133  49.80011  59.79348
      13  46.97836  59.14619         15.91565   2.979107  49.80011  59.79348  44.18270  59.50133  44.15663  58.49867  49.77402  58.79120
      13  46.95230  58.14325         15.92789   2.982959  49.77402  58.79120  44.15663  58.49867  44.13060  57.49507  49.74797  57.78798
      13  46.92628  57.13937         15.94015   2.986815  49.74797  57.78798  44.13060  57.49507  44.10462  56.49053  49.72197  56.78382
      13  46.90031  56.13455         15.95242   2.990676  49.72197  56.78382  44.10462  56.49053  44.07867  55.48504  49.69600  55.77871
      13  46.87437  55.12877         15.96469   2.994541  49.69600  55.77871  44.07867  55.48504  44.05277  54.47861  49.67008  54.77265
      13  46.84848  54.12206         15.97698   2.998410  49.67008  54.77265  44.05277  54.47861  44.02691  53.47123  49.64420  53.76565
      13  46.82264  53.11439         15.98927   3.002284  49.64420  53.76565  44.02691  53.47123  44.00110  52.46290  49.61837  52.75770
      13  46.79684  52.10578         16.00158   3.006162  49.61837  52.75770  44.00110  52.46290  43.97533  51.45362  49.59258  51.74880
      13  46.77108  51.09622         16.01389   3.010044  49.59258  51.74880  43.97533  51.45362  43.94960  50.44339  49.56683  50.73896
      13  46.74536  50.08570         16.02621   3.013931  49.56683  50.73896  43.94960  50.44339  43.92392  49.43221  49.54112  49.72816
      13  46.71969  49.07424         16.03855   3.017822  49.54112  49.72816  43.92392  49.43221  43.89827  48.42008  49.51546  48.71641
      13  46.69406  48.06182         16.05089   3.021718  49.51546  48.71641  43.89827  48.42008  43.87268  47.40700  49.48985  47.70371
      13  46.66847  47.04845         16.06324   3.025617  49.48985  47.70371  43.87268  47.40700  43.84712  46.39296  49.46427  46.69005
      13  46.64293  46.03413         16.07560   3.029522  49.46427  46.69005  43.84712  46.39296  43.82162  45.37797  49.43874  45.67544
      13  46.61743  45.01885         16.08797   3.033430  49.43874  45.67544  43.82162  45.37797  43.79615  44.36202  49.41326  44.65987
      13  46.59198  44.00261         16.10035   3.037343  49.41326  44.65987  43.79615  44.36202  43.77073  43.34511  49.38782  43.64335
      13  46.56657  42.98542         16.11274   3.041260  49.38782  43.64335  43.77073  43.34511  43.74535  42.32724  49.36242  42.62587
      13  46.54121  41.96726         16.12514   3.045182  49.36242  42.62587  43.74535  42.32724  43.72002  41.30842  49.33707  41.60743
      13  46.51589  40.94815         16.13755   3.049108  49.33707  41.60743  43.72002  41.30842  43.69473  40.28864  49.31176  40.58803
      13  46.49061  39.92808         16.14997   3.053039  49.31176  40.58803  43.69473  40.28864  43.66949  39.26789  49.28650  39.56767
      13  46.46538  38.90705         16.16240   3.056974  49.28650  39.56767  43.66949  39.26789  43.64430  38.24618  49.26128  38.54635
      13  46.44020  37.88505         16.17483   3.060913  49.26128  38.54635  43.64430  38.24618  43.61914  37.22351  49.23611  37.52407
      13  46.41506  36.86209         16.18728   3.064857  49.23611  37.52407  43.61914  37.22351  43.59404  36.19988  49.21098  36.50082
      13  46.38996  35.83817         16.19974   3.068805  49.21098  36.50082  43.59404  36.19988  43.56898  35.17528  49.18590  35.47661
      13  46.36492  34.81328         16.21220   3.072758  49.18590  35.47661  43.56898  35.17528  43.54396  34.14971  49.16086  34.45143
      13  46.33991  33.78742         16.22468   3.076715  49.16086  34.45143  43.54396  34.14971  43.51899  33.12318  49.13587  33.42528
      13  46.31495  32.76060         16.23716   3.080677  49.13587  33.42528  43.51899  33.12318  43.49406  32.09568  49.11093  32.39817
      13  46.29004  31.73281         16.24966   3.084643  49.11093  32.39817  43.49406  32.09568  43.46919  31.06721  49.08603  31.37009
      13  46.26518  30.70405         16.26216   3.088613  49.08603  31.37009  43.46919  31.06721  43.44435  30.03777  49.06117  30.34104
      13  46.24036  29.67432         16.27468   3.092588  49.06117  30.34104  43.44435  30.03777  43.41957  29.00735  49.03637  29.31102
      13  46.21558  28.64361         16.28720   3.096568  49.03637  29.31102  43.41957  29.00735  43.39483  27.97597  49.01160  28.28002
      13  46.19086  27.61194         16.29973   3.100552  49.01160  28.28002  43.39483  27.97597  43.37013  26.94361  48.98689  27.24806
      13  46.16618  26.57929         16.31228   3.104540  48.98689  27.24806  43.37013  26.94361  43.34549  25.91028  48.96222  26.21511
      13  46.14154  25.54566         16.32483   3.108533  48.96222  26.21511  43.34549  25.91028  43.32089  24.87597  48.93760  25.18120
      13  46.11695  24.51106         16.33739   3.112531  48.93760  25.18120  43.32089  24.87597  43.29633  23.84069  48.91303  24.14631
      13  46.09241  23.47549         16.34996   3.116533  48.91303  24.14631  43.29633  23.84069  43.27183  22.80443  48.88850  23.11044
      13  46.06792  22.43893         16.36255   3.120539  48.88850  23.11044  43.27183  22.80443  43.24737  21.76719  48.86402  22.07359
      13  46.04347  21.40140         16.37514   3.124550  48.86402  22.07359  43.24737  21.76719  43.22296  20.72897  48.83958  21.03576
      13  46.01907  20.36289         16.38774   3.128566  48.83958  21.03576  43.22296  20.72897  43.19859  19.68977  48.81520  19.99696
      13  45.99472  19.32339         16.40035   3.132586  48.81520  19.99696  43.19859  19.68977  43.17428  18.64959  48.79086  18.95717
      13  45.97042  18.28292         16.41297   3.136610  48.79086  18.95717  43.17428  18.64959  43.15001  17.60842  48.76657  17.91640
      13  45.94616  17.24146         16.42560   3.140639  48.76657  17.91640  43.15001  17.60842  43.12579  16.56627  48.74233  16.87465
      13  45.92196  16.19902         16.43824   3.144673  48.74233  16.87465  43.12579  16.56627  43.10161  15.52314  48.71813  15.83191
      13  45.89780  15.15559         16.45089   3.148711  48.71813  15.83191  43.10161  15.52314  43.07749  14.47902  48.69398  14.78819
      13  45.87368  14.11118         16.46355   3.152754  48.69398  14.78819  43.07749  14.47902  43.05341  13.43392  48.66989  13.74348
      13  45.84962  13.06578         16.47622   3.156801  48.66989  13.74348  43.05341  13.43392  43.02938  12.38783  48.64584  12.69779
      13  45.82560  12.01939         16.48890   3.160853  48.64584  12.69779  43.02938  12.38783  43.00540  11.34074  48.62183  11.65110
      13  45.80164  10.97201         16.50159   3.164910  48.62183  11.65110  43.00540  11.34074  42.98147  10.29267  48.59788  10.60343
      13  45.77772   9.92364         16.51428   3.168971  48.59788  10.60343  42.98147  10.29267  42.95759   9.24361  48.57398   9.55476
      13  45.75385   8.87428         16.52699   3.173037  48.57398   9.55476  42.95759   9.24361  42.93375   8.19356  48.55012   8.50511
      13  45.73003   7.82393         16.53971   3.177107  48.55012   8.50511  42.93375   8.19356  42.90997   7.14251  48.52631   7.45446
      13  45.70626   6.77259         16.55244   3.181182  48.52631   7.45446  42.90997   7.14251  42.88623   6.09047  48.50256   6.40282
      13  45.68254   5.72025         16.56518   3.185261  48.50256   6.40282  42.88623   6.09047  42.86255   5.03743  48.47885   5.35018
      13  45.65887   4.66691         16.57792   3.189346  48.47885   5.35018  42.86255   5.03743  42.83891   3.98340  48.45519   4.29655
      13  45.63524   3.61258         16.59068   3.193434  48.45519   4.29655  42.83891   3.98340  42.81533   2.92837  48.43158   3.24192
      13  45.61167   2.55725         16.60345   3.197528  48.43158   3.24192  42.81533   2.92837  42.79179   1.87234  48.40802   2.18629
      13  45.58815   1.50093         16.61622   3.201626  48.40802   2.18629  42.79179   1.87234  42.76830   0.81531  48.38451   1.12967
      13  45.56467   0.44360         16.62901   3.205729  48.38451   1.12967  42.76830   0.81531  42.74487  -0.24272  48.36105   0.07204
      13  45.54125  -0.61473         16.64181   3.209836  48.36105   0.07204  42.74487  -0.24272  42.72148  -1.30175  48.33764  -0.98659
      12  32.08711 126.60448         16.31228   3.223426  34.91470 127.23261  29.29859 126.91652  29.25955 125.97612  34.87564 126.29261
      12  32.04808 125.66385         16.32483   3.227494  34.87564 126.29261  29.25955 125.97612  29.22054 125.03485  34.83661 125.35174
      12  32.00907 124.72233         16.33739   3.231566  34.83661 125.35174  29.22054 125.03485  29.18155 124.09269  34.79760 124.40998
      12  31.97008 123.77994         16.34996   3.235643  34.79760 124.40998  29.18155 124.09269  29.14259 123.14965  34.75861 123.46734
      12  31.93112 122.83666         16.36255   3.239724  34.75861 123.46734  29.14259 123.14965  29.10365 122.20573  34.71965 122.52382
      12  31.89218 121.89250         16.37514   3.243809  34.71965 122.52382  29.10365 122.20573  29.06474 121.26093  34.68072 121.57942
      12  31.85328 120.94745         16.38774   3.247899  34.68072 121.57942  29.06474 121.26093  29.02586 120.31524  34.64181 120.63413
      12  31.81439 120.00152         16.40035   3.251993  34.64181 120.63413  29.02586 120.31524  28.98700 119.36867  34.60293 119.68796
      12  31.77553 119.05471         16.41297   3.256091  34.60293 119.68796  28.98700 119.36867  28.94817 118.42121  34.56407 118.74091
      12  31.73670 118.10701         16.42560   3.260194  34.56407 118.74091  28.94817 118.42121  28.90936 117.47286  34.52524 117.79296
      12  31.69790 117.15842         16.43824   3.264301  34.52524 117.79296  28.90936 117.47286  28.87058 116.52363  34.48644 116.84413
      12  31.65912 116.20894         16.45089   3.268413  34.48644 116.84413  28.87058 116.52363  28.83182 115.57351  34.44766 115.89441
      12  31.62037 115.25857         16.46355   3.272528  34.44766 115.89441  28.83182 115.57351  28.79310 114.62249  34.40891 114.94380
      12  31.58164 114.30732         16.47622   3.276649  34.40891 114.94380  28.79310 114.62249  28.75440 113.67059  34.37019 113.99230
      12  31.54294 113.35517         16.48890   3.280773  34.37019 113.99230  28.75440 113.67059  28.71572 112.71779  34.33149 113.03991
      12  31.50427 112.40213         16.50159   3.284902  34.33149 113.03991  28.71572 112.71779  28.67707 111.76410  34.29282 112.08662
      12  31.46562 111.44819         16.51428   3.289036  34.29282 112.08662  28.67707 111.76410  28.63845 110.80952  34.25418 111.13245
      12  31.42700 110.49337         16.52699   3.293174  34.25418 111.13245  28.63845 110.80952  28.59986 109.85404  34.21556 110.17738
      12  31.38841 109.53764         16.53971   3.297316  34.21556 110.17738  28.59986 109.85404  28.56129 108.89767  34.17697 109.22141
      12  31.34985 108.58103         16.55244   3.301462  34.17697 109.22141  28.56129 108.89767  28.52275 107.94040  34.13840 108.26455
      12  31.31131 107.62351         16.56518   3.305613  34.13840 108.26455  28.52275 107.94040  28.48424 106.98224  34.09987 107.30679
      12  31.27280 106.66510         16.57792   3.309769  34.09987 107.30679  28.48424 106.98224  28.44576 106.02317  34.06136 106.34813
      12  31.23432 105.70579         16.59068   3.313929  34.06136 106.34813  28.44576 106.02317  28.40730 105.06321  34.02288 105.38857
      12  31.19586 104.74558         16.60345   3.318093  34.02288 105.38857  28.40730 105.06321  28.36887 104.10234  33.98443 104.42812
      12  31.15743 103.78447         16.61622   3.322262  33.98443 104.42812  28.36887 104.10234  28.33047 103.14058  33.94600 103.46676
      12  31.11903 102.82246         16.62901   3.326435  33.94600 103.46676  28.33047 103.14058  28.29209 102.17791  33.90760 102.50450
      12  31.08066 101.85954         16.64181   3.330613  33.90760 102.50450  28.29209 102.17791  28.25375 101.21434  33.86923 101.54134
      12  31.04232 100.89572         16.65461   3.334795  33.86923 101.54134  28.25375 101.21434  28.21543 100.24986  33.83089 100.57727
      12  31.00400  99.93100         16.66743   3.338982  33.83089 100.57727  28.21543 100.24986  28.17714  99.28448  33.79258  99.61230
      12  30.96572  98.96537         16.68026   3.343173  33.79258  99.61230  28.17714  99.28448  28.13888  98.31820  33.75429  98.64643
      12  30.92746  97.99884         16.69309   3.347368  33.75429  98.64643  28.13888  98.31820  28.10065  97.35100  33.71604  97.67965
      12  30.88923  97.03140         16.70594   3.351568  33.71604  97.67965  28.10065  97.35100  28.06244  96.38290  33.67781  96.71196
      12  30.85102  96.06305         16.71879   3.355773  33.67781  96.71196  28.06244  96.38290  28.02427  95.41389  33.63961  95.74336
      12  30.81285  95.09379         16.73166   3.359982  33.63961  95.74336  28.02427  95.41389  27.98612  94.44397  33.60144  94.77386
      12  30.77471  94.12362         16.74453   3.364196  33.60144  94.77386  27.98612  94.44397  27.94800  93.47314  33.56329  93.80344
      12  30.73659  93.15254         16.75742   3.368414  33.56329  93.80344  27.94800  93.47314  27.90991  92.50140  33.52518  92.83211
      12  30.69850  92.18055         16.77031   3.372636  33.52518  92.83211  27.90991  92.50140  27.87185  91.52875  33.48710  91.85987
      12  30.66045  91.20765         16.78322   3.376863  33.48710  91.85987  27.87185  91.52875  27.83382  90.55518  33.44904  90.88672
      12  30.62242  90.23383         16.79613   3.381095  33.44904  90.88672  27.83382  90.55518  27.79582  89.58070  33.41102  89.91265
      12  30.58442  89.25910         16.80906   3.385331  33.41102  89.91265  27.79582  89.58070  27.75785  88.60530  33.37302  88.93767
      12  30.54645  88.28345         16.82199   3.389571  33.37302  88.93767  27.75785  88.60530  27.71990  87.62899  33.33505  87.96177
      12  30.50851  87.30689         16.83494   3.393817  33.33505  87.96177  27.71990  87.62899  27.68199  86.65176  33.29711  86.98496
      12  30.47060  86.32941         16.84789   3.398066  33.29711  86.98496  27.68199  86.65176  27.64411  85.67361  33.25921  86.00722
      12  30.43272  85.35101         16.86086   3.402321  33.25921  86.00722  27.64411  85.67361  27.60626  84.69454  33.22133  85.02857
      12  30.39487  84.37169         16.87383   3.406579  33.22133  85.02857  27.60626  84.69454  27.56843  83.71455  33.18348  84.04900
      12  30.35705  83.39145         16.88682   3.410843  33.18348  84.04900  27.56843  83.71455  27.53064  82.73364  33.14566  83.06851
      12  30.31926  82.41028         16.89981   3.415111  33.14566  83.06851  27.53064  82.73364  27.49288  81.75181  33.10787  82.08709
      12  30.28149  81.42820         16.91282   3.419383  33.10787  82.08709  27.49288  81.75181  27.45514  80.76905  33.07012  81.10476
      12  30.24377  80.44519         16.92583   3.423660  33.07012  81.10476  27.45514  80.76905  27.41744  79.78537  33.03239  80.12150
      12  30.20607  79.46126         16.93886   3.427942  33.03239  80.12150  27.41744  79.78537  27.37977  78.80077  32.99469  79.13731
      12  30.16840  78.47640         16.95189   3.432228  32.99469  79.13731  27.37977  78.80077  27.34213  77.81524  32.95703  78.15220
      12  30.13076  77.49062         16.96494   3.436519  32.95703  78.15220  27.34213  77.81524  27.30452  76.82878  32.91939  77.16616
      12  30.09315  76.50390         16.97799   3.440815  32.91939  77.16616  27.30452  76.82878  27.26694  75.84139  32.88179  76.17920
      12  30.05558  75.51626         16.99106   3.445115  32.88179  76.17920  27.26694  75.84139  27.22939  74.85308  32.84421  75.19131
      12  30.01803  74.52770         17.00413   3.449419  32.84421  75.19131  27.22939  74.85308  27.19187  73.86383  32.80667  74.20248
      12  29.98052  73.53820         17.01722   3.453729  32.80667  74.20248  27.19187  73.86383  27.15439  72.87366  32.76916  73.21273
      12  29.94303  72.54777         17.03031   3.458042  32.76916  73.21273  27.15439  72.87366  27.11693  71.88255  32.73168  72.22205
      12  29.90558  71.55640         17.04342   3.462361  32.73168  72.22205  27.11693  71.88255  27.07951  70.89051  32.69423  71.23043
      12  29.86816  70.56411         17.05653   3.466684  32.69423  71.23043  27.07951  70.89051  27.04212  69.89753  32.65681  70.23788
      12  29.83077  69.57088         17.06966   3.471012  32.65681  70.23788  27.04212  69.89753  27.00476  68.90362  32.61943  69.24439
      12  29.79342  68.57671         17.08280   3.475345  32.61943  69.24439  27.00476  68.90362  26.96743  67.90878  32.58208  68.24997
      12  29.75609  67.58161         17.09594   3.479682  32.58208  68.24997  26.96743  67.90878  26.93014  66.91300  32.54475  67.25462
      12  29.71880  66.58557         17.10910   3.484023  32.54475  67.25462  26.93014  66.91300  26.89287  65.91628  32.50746  66.25832
      12  29.68154  65.58860         17.12226   3.488370  32.50746  66.25832  26.89287  65.91628  26.85564  64.91862  32.47021  65.26109
      12  29.64431  64.59068         17.13544   3.492721  32.47021  65.26109  26.85564  64.91862  26.81844  63.92002  32.43298  64.26292
      12  29.60712  63.59183         17.14863   3.497077  32.43298  64.26292  26.81844  63.92002  26.78128  62.92048  32.39579  63.26381
      12  29.56995  62.59203         17.16182   3.501437  32.39579  63.26381  26.78128  62.92048  26.74414  61.92000  32.35863  62.26375
      12  29.53282  61.59129         17.17503   3.505802  32.35863  62.26375  26.74414  61.92000  26.70704  60.91858  32.32150  61.26276
      12  29.49572  60.58961         17.18824   3.510172  32.32150  61.26276  26.70704  60.91858  26.66997  59.91621  32.28441  60.26082
      12  29.45866  59.58699         17.20147   3.514547  32.28441  60.26082  26.66997  59.91621  26.63294  58.91290  32.24734  59.25794
      12  29.42163  58.58342         17.21471   3.518926  32.24734  59.25794  26.63294  58.91290  26.59593  57.90864  32.21032  58.25411
      12  29.38463  57.57890         17.22796   3.523310  32.21032  58.25411  26.59593  57.90864  26.55897  56.90344  32.17332  57.24933
      12  29.34766  56.57344         17.24121   3.527699  32.17332  57.24933  26.55897  56.90344  26.52203  55.89728  32.13636  56.24361
      12  29.31073  55.56703         17.25448   3.532092  32.13636  56.24361  26.52203  55.89728  26.48513  54.89018  32.09943  55.23694
      12  29.27383  54.55967         17.26776   3.536491  32.09943  55.23694  26.48513  54.89018  26.44826  53.88213  32.06253  54.22932
      12  29.23696  53.55136         17.28105   3.540893  32.06253  54.22932  26.44826  53.88213  26.41142  52.87313  32.02567  53.22075
      12  29.20013  52.54209         17.29434   3.545301  32.02567  53.22075  26.41142  52.87313  26.37462  51.86318  31.98884  52.21123
      12  29.16333  51.53188         17.30765   3.549714  31.98884  52.21123  26.37462  51.86318  26.33785  50.85227  31.95205  51.20076
      12  29.12657  50.52072         17.32097   3.554131  31.95205  51.20076  26.33785  50.85227  26.30112  49.84041  31.91529  50.18933
      12  29.08984  49.50860         17.33430   3.558553  31.91529  50.18933  26.30112  49.84041  26.26442  48.82760  31.87856  49.17695
      12  29.05314  48.49552         17.34764   3.562979  31.87856  49.17695  26.26442  48.82760  26.22775  47.81383  31.84187  48.16362
      12  29.01648  47.48149         17.36099   3.567411  31.84187  48.16362  26.22775  47.81383  26.19112  46.79910  31.80521  47.14932
      12  28.97985  46.46650         17.37435   3.571847  31.80521  47.14932  26.19112  46.79910  26.15452  45.78342  31.76858  46.13407
      12  28.94326  45.45056         17.38772   3.576288  31.76858  46.13407  26.15452  45.78342  26.11796  44.76678  31.73199  45.11787
      12  28.90670  44.43365         17.40110   3.580734  31.73199  45.11787  26.11796  44.76678  26.08143  43.74917  31.69544  44.10070
      12  28.87018  43.41579         17.41449   3.585184  31.69544  44.10070  26.08143  43.74917  26.04494  42.73061  31.65892  43.08257
      12  28.83369  42.39696         17.42789   3.589640  31.65892  43.08257  26.04494  42.73061  26.00848  41.71108  31.62244  42.06348
      12  28.79723  41.37717         17.44130   3.594100  31.62244  42.06348  26.00848  41.71108  25.97206  40.69060  31.58599  41.04343
      12  28.76082  40.35642         17.45472   3.598565  31.58599  41.04343  25.97206  40.69060  25.93568  39.66914  31.54957  40.02242
      12  28.72443  39.33470         17.46816   3.603035  31.54957  40.02242  25.93568  39.66914  25.89932  38.64673  31.51319  39.00044
      12  28.68808  38.31202         17.48160   3.607510  31.51319  39.00044  25.89932  38.64673  25.86301  37.62334  31.47685  37.97750
      12  28.65177  37.28838         17.49505   3.611989  31.47685  37.97750  25.86301  37.62334  25.82673  36.59899  31.44054  36.95359
      12  28.61550  36.26376         17.50851   3.616474  31.44054  36.95359  25.82673  36.59899  25.79048  35.57368  31.40427  35.92871
      12  28.57925  35.23818         17.52199   3.620963  31.40427  35.92871  25.79048  35.57368  25.75427  34.54739  31.36803  34.90286
      12  28.54305  34.21163         17.53547   3.625457  31.36803  34.90286  25.75427  34.54739  25.71810  33.52013  31.33183  33.87605
      12  28.50688  33.18411         17.54896   3.629956  31.33183  33.87605  25.71810  33.52013  25.68196  32.49191  31.29566  32.84826
      12  28.47075  32.15562         17.56247   3.634460  31.29566  32.84826  25.68196  32.49191  25.64586  31.46271  31.25953  31.81950
      12  28.43465  31.12615         17.57598   3.638968  31.25953  31.81950  25.64586  31.46271  25.60980  30.43254  31.22344  30.78977
      12  28.39859  30.09571         17.58951   3.643482  31.22344  30.78977  25.60980  30.43254  25.57377  29.40139  31.18739  29.75907
      12  28.36257  29.06430         17.60304   3.648000  31.18739  29.75907  25.57377  29.40139  25.53778  28.36927  31.15137  28.72739
      12  28.32658  28.03191         17.61659   3.652524  31.15137  28.72739  25.53778  28.36927  25.50182  27.33617  31.11538  27.69474
      12  28.29063  26.99855         17.63015   3.657052  31.11538  27.69474  25.50182  27.33617  25.46591  26.30210  31.07944  26.66111
      12  28.25472  25.96421         17.64371   3.661585  31.07944  26.66111  25.46591  26.30210  25.43003  25.26704  31.04353  25.62650
      12  28.21884  24.92889         17.65729   3.666123  31.04353  25.62650  25.43003  25.26704  25.39418  24.23101  31.00766  24.59091
      12  28.18300  23.89259         17.67088   3.670666  31.00766  24.59091  25.39418  24.23101  25.35838  23.19400  30.97182  23.55434
      12  28.14720  22.85531         17.68448   3.675214  30.97182  23.55434  25.35838  23.19400  25.32261  22.15601  30.93602  22.51680
      12  28.11143  21.81705         17.69809   3.679767  30.93602  22.51680  25.32261  22.15601  25.28688  21.11703  30.90026  21.47827
      12  28.07571  20.77781         17.71170   3.684325  30.90026  21.47827  25.28688  21.11703  25.25118  20.07707  30.86454  20.43876
      12  28.04002  19.73758         17.72533   3.688887  30.86454  20.43876  25.25118  20.07707  25.21553  19.03613  30.82886  19.39826
      12  28.00437  18.69637         17.73897   3.693455  30.82886  19.39826  25.21553  19.03613  25.17991  17.99420  30.79321  18.35678
      12  27.96875  17.65417         17.75263   3.698027  30.79321  18.35678  25.17991  17.99420  25.14433  16.95129  30.75760  17.31431
      12  27.93318  16.61098         17.76629   3.702605  30.75760  17.31431  25.14433  16.95129  25.10879  15.90738  30.72203  16.27086
      12  27.89764  15.56681         17.77996   3.707187  30.72203  16.27086  25.10879  15.90738  25.07328  14.86249  30.68650  15.22642
      12  27.86214  14.52165         17.79364   3.711775  30.68650  15.22642  25.07328  14.86249  25.03782  13.81661  30.65100  14.18098
      12  27.82668  13.47550         17.80733   3.716367  30.65100  14.18098  25.03782  13.81661  25.00239  12.76974  30.61555  13.13456
      12  27.79126  12.42836         17.82104   3.720965  30.61555  13.13456  25.00239  12.76974  24.96700  11.72188  30.58013  12.08715
      12  27.75588  11.38022         17.83475   3.725567  30.58013  12.08715  24.96700  11.72188  24.93165  10.67302  30.54475  11.03875
      12  27.72053  10.33110         17.84847   3.730175  30.54475  11.03875  24.93165  10.67302  24.89634   9.62317  30.50941   9.98935
      12  27.68523   9.28097         17.86221   3.734787  30.50941   9.98935  24.89634   9.62317  24.86107   8.57233  30.47411   8.93896
      12  27.64996   8.22986         17.87595   3.739405  30.47411   8.93896  24.86107   8.57233  24.82584   7.52049  30.43885   7.88757
      12  27.61473   7.17775         17.88971   3.744027  30.43885   7.88757  24.82584   7.52049  24.79065   6.46765  30.40363   6.83518
      12  27.57955   6.12464         17.90348   3.748655  30.40363   6.83518  24.79065   6.46765  24.75550   5.41381  30.36845   5.78180
      12  27.54440   5.07053         17.91725   3.753287  30.36845   5.78180  24.75550   5.41381  24.72038   4.35898  30.33330   4.72742
      12  27.50929   4.01542         17.93104   3.757925  30.33330   4.72742  24.72038   4.35898  24.68531   3.30315  30.29820   3.67204
      12  27.47422   2.95931         17.94484   3.762567  30.29820   3.67204  24.68531   3.30315  24.65028   2.24631  30.26314   2.61566
      12  27.43919   1.90220         17.95865   3.767215  30.26314   2.61566  24.65028   2.24631  24.61528   1.18847  30.22811   1.55828
      12  27.40420   0.84409         17.97247   3.771868  30.22811   1.55828  24.61528   1.18847  24.58033   0.12963  30.19313   0.49989
      11  12.40142 127.46066         17.73897   3.809195  15.23333 128.11768   9.62074 127.74422   9.56954 126.80337  15.18209 127.17729
      11  12.35021 126.51960         17.75263   3.813832  15.18209 127.17729   9.56954 126.80337   9.51835 125.86164  15.13088 126.23601
      11  12.29901 125.57765         17.76629   3.818474  15.13088 126.23601   9.51835 125.86164   9.46717 124.91902  15.07967 125.29385
      11  12.24783 124.63482         17.77996   3.823121  15.07967 125.29385   9.46717 124.91902   9.41602 123.97552  15.02848 124.35081
      11  12.19666 123.69111         17.79364   3.827773  15.02848 124.35081   9.41602 123.97552   9.36487 123.03114  14.97731 123.40688
      11  12.14551 122.74651         17.80733   3.832429  14.97731 123.40688   9.36487 123.03114   9.31374 122.08587  14.92615 122.46207
      11  12.09437 121.80102         17.82104   3.837091  14.92615 122.46207   9.31374 122.08587   9.26263 121.13971  14.87500 121.51637
      11  12.04325 120.85465         17.83475   3.841757  14.87500 121.51637   9.26263 121.13971   9.21153 120.19267  14.82388 120.56978
      11  11.99215 119.90739         17.84847   3.846429  14.82388 120.56978   9.21153 120.19267   9.16045 119.24474  14.77276 119.62230
      11  11.94106 118.95924         17.86221   3.851105  14.77276 119.62230   9.16045 119.24474   9.10938 118.29591  14.72166 118.67394
      11  11.88998 118.01020         17.87595   3.855786  14.72166 118.67394   9.10938 118.29591   9.05833 117.34620  14.67058 117.72468
      11  11.83892 117.06027         17.88971   3.860472  14.67058 117.72468   9.05833 117.34620   9.00729 116.39559  14.61952 116.77453
      11  11.78788 116.10945         17.90348   3.865163  14.61952 116.77453   9.00729 116.39559   8.95628 115.44409  14.56847 115.82349
      11  11.73685 115.15773         17.91725   3.869859  14.56847 115.82349   8.95628 115.44409   8.90527 114.49170  14.51743 114.87156
      11  11.68584 114.20512         17.93104   3.874560  14.51743 114.87156   8.90527 114.49170   8.85428 113.53841  14.46641 113.91874
      11  11.63485 113.25162         17.94484   3.879266  14.46641 113.91874   8.85428 113.53841   8.80331 112.58423  14.41541 112.96501
      11  11.58387 112.29722         17.95865   3.883977  14.41541 112.96501   8.80331 112.58423   8.75236 111.62915  14.36442 112.01040
      11  11.53290 111.34192         17.97247   3.888693  14.36442 112.01040   8.75236 111.62915   8.70142 110.67317  14.31345 111.05488
      11  11.48196 110.38572         17.98630   3.893414  14.31345 111.05488   8.70142 110.67317   8.65049 109.71630  14.26250 110.09847
      11  11.43103 109.42863         18.00014   3.898140  14.26250 110.09847   8.65049 109.71630   8.59959 108.75852  14.21156 109.14116
      11  11.38011 108.47064         18.01399   3.902871  14.21156 109.14116   8.59959 108.75852   8.54870 107.79985  14.16064 108.18295
      11  11.32922 107.51175         18.02785   3.907607  14.16064 108.18295   8.54870 107.79985   8.49783 106.84027  14.10973 107.22383
      11  11.27834 106.55195         18.04173   3.912348  14.10973 107.22383   8.49783 106.84027   8.44697 105.87979  14.05885 106.26382
      11  11.22747 105.59125         18.05561   3.917094  14.05885 106.26382   8.44697 105.87979   8.39613 104.91841  14.00797 105.30291
      11  11.17663 104.62965         18.06951   3.921845  14.00797 105.30291   8.39613 104.91841   8.34531 103.95613  13.95712 104.34109
      11  11.12580 103.66715         18.08341   3.926601  13.95712 104.34109   8.34531 103.95613   8.29450 102.99294  13.90628 103.37836
      11  11.07499 102.70374         18.09733   3.931362  13.90628 103.37836   8.29450 102.99294   8.24372 102.02884  13.85546 102.41473
      11  11.02419 101.73942         18.11125   3.936128  13.85546 102.41473   8.24372 102.02884   8.19295 101.06384  13.80466 101.45020
      11  10.97341 100.77420         18.12519   3.940899  13.80466 101.45020   8.19295 101.06384   8.14219 100.09793  13.75388 100.48475
      11  10.92265  99.80807         18.13914   3.945675  13.75388 100.48475   8.14219 100.09793   8.09146  99.13111  13.70311  99.51840
      11  10.87191  98.84103         18.15310   3.950457  13.70311  99.51840   8.09146  99.13111   8.04074  98.16338  13.65236  98.55114
      11  10.82118  97.87308         18.16706   3.955243  13.65236  98.55114   8.04074  98.16338   7.99004  97.19474  13.60163  97.58297
      11  10.77048  96.90422         18.18104   3.960034  13.60163  97.58297   7.99004  97.19474   7.93936  96.22519  13.55091  96.61389
      11  10.71979  95.93445         18.19504   3.964831  13.55091  96.61389   7.93936  96.22519   7.88869  95.25473  13.50021  95.64390
      11  10.66912  94.96376         18.20904   3.969633  13.50021  95.64390   7.88869  95.25473   7.83805  94.28335  13.44954  94.67299
      11  10.61846  93.99216         18.22305   3.974439  13.44954  94.67299   7.83805  94.28335   7.78742  93.31106  13.39888  93.70117
      11  10.56783  93.01965         18.23707   3.979251  13.39888  93.70117   7.78742  93.31106   7.73681  92.33785  13.34823  92.72843
      11  10.51721  92.04622         18.25111   3.984068  13.34823  92.72843   7.73681  92.33785   7.68622  91.36373  13.29761  91.75478
      11  10.46661  91.07187         18.26515   3.988890  13.29761  91.75478   7.68622  91.36373   7.63564  90.38869  13.24700  90.78021
      11  10.41603  90.09661         18.27921   3.993717  13.24700  90.78021   7.63564  90.38869   7.58509  89.41273  13.19641  89.80473
      11  10.36547  89.12043         18.29327   3.998549  13.19641  89.80473   7.58509  89.41273   7.53455  88.43585  13.14585  88.82832
      11  10.31493  88.14333         18.30735   4.003387  13.14585  88.82832   7.53455  88.43585   7.48404  87.45805  13.09529  87.85100
      11  10.26440  87.16530         18.32144   4.008229  13.09529  87.85100   7.48404  87.45805   7.43354  86.47933  13.04476  86.87275
      11  10.21390  86.18636         18.33554   4.013077  13.04476  86.87275   7.43354  86.47933   7.38306  85.49969  12.99425  85.89358
      11  10.16341  85.20649         18.34965   4.017930  12.99425  85.89358   7.38306  85.49969   7.33260  84.51912  12.94376  84.91349
      11  10.11294  84.22570         18.36377   4.022788  12.94376  84.91349   7.33260  84.51912   7.28216  83.53763  12.89328  83.93248
      11  10.06249  83.24399         18.37790   4.027651  12.89328  83.93248   7.28216  83.53763   7.23174  82.55522  12.84283  82.95054
      11  10.01206  82.26135         18.39204   4.032519  12.84283  82.95054   7.23174  82.55522   7.18133  81.57188  12.79239  81.96768
      11   9.96165  81.27778         18.40619   4.037392  12.79239  81.96768   7.18133  81.57188   7.13095  80.58761  12.74197  80.98389
      11   9.91126  80.29329         18.42036   4.042271  12.74197  80.98389   7.13095  80.58761   7.08059  79.60241  12.69158  79.99917
      11   9.86089  79.30787         18.43453   4.047155  12.69158  79.99917   7.08059  79.60241   7.03024  78.61629  12.64120  79.01352
      11   9.81054  78.32152         18.44872   4.052044  12.64120  79.01352   7.03024  78.61629   6.97992  77.62923  12.59084  78.02695
      11   9.76021  77.33424         18.46292   4.056938  12.59084  78.02695   6.97992  77.62923   6.92961  76.64125  12.54050  77.03944
      11   9.70990  76.34603         18.47712   4.061838  12.54050  77.03944   6.92961  76.64125   6.87933  75.65233  12.49018  76.05100
      11   9.65961  75.35688         18.49134   4.066742  12.49018  76.05100   6.87933  75.65233   6.82907  74.66248  12.43989  75.06163
      11   9.60934  74.36680         18.50557   4.071652  12.43989  75.06163   6.82907  74.66248   6.77882  73.67169  12.38961  74.07133
      11   9.55909  73.37579         18.51981   4.076567  12.38961  74.07133   6.77882  73.67169   6.72860  72.67997  12.33935  73.08009
      11   9.50886  72.38385         18.53406   4.081488  12.33935  73.08009   6.72860  72.67997   6.67840  71.68732  12.28911  72.08792
      11   9.45865  71.39096         18.54833   4.086413  12.28911  72.08792   6.67840  71.68732   6.62821  70.69372  12.23889  71.09481
      11   9.40846  70.39714         18.56260   4.091344  12.23889  71.09481   6.62821  70.69372   6.57805  69.69919  12.18870  70.10076
      11   9.35829  69.40238         18.57688   4.096280  12.18870  70.10076   6.57805  69.69919   6.52791  68.70372  12.13852  69.10577
      11   9.30814  68.40669         18.59118   4.101222  12.13852  69.10577   6.52791  68.70372   6.47779  67.70731  12.08837  68.10985
      11   9.25801  67.41005         18.60549   4.106168  12.08837  68.10985   6.47779  67.70731   6.42769  66.70996  12.03823  67.11298
      11   9.20791  66.41247         18.61980   4.111120  12.03823  67.11298   6.42769  66.70996   6.37761  65.71167  11.98812  66.11518
      11   9.15782  65.41395         18.63413   4.116078  11.98812  66.11518   6.37761  65.71167   6.32755  64.71244  11.93803  65.11643
      11   9.10776  64.41449         18.64847   4.121040  11.93803  65.11643   6.32755  64.71244   6.27752  63.71226  11.88796  64.11674
      11   9.05771  63.41408         18.66282   4.126008  11.88796  64.11674   6.27752  63.71226   6.22750  62.71114  11.83791  63.11610
      11   9.00769  62.41273         18.67718   4.130981  11.83791  63.11610   6.22750  62.71114   6.17751  61.70907  11.78788  62.11452
      11   8.95769  61.41043         18.69156   4.135959  11.78788  62.11452   6.17751  61.70907   6.12754  60.70605  11.73787  61.11199
      11   8.90771  60.40718         18.70594   4.140943  11.73787  61.11199   6.12754  60.70605   6.07759  59.70209  11.68789  60.10851
      11   8.85776  59.40299         18.72033   4.145932  11.68789  60.10851   6.07759  59.70209   6.02766  58.69717  11.63792  59.10409
      11   8.80782  58.39785         18.73474   4.150927  11.63792  59.10409   6.02766  58.69717   5.97776  57.69131  11.58798  58.09872
      11   8.75791  57.39175         18.74916   4.155926  11.58798  58.09872   5.97776  57.69131   5.92787  56.68450  11.53806  57.09239
      11   8.70802  56.38471         18.76359   4.160931  11.53806  57.09239   5.92787  56.68450   5.87801  55.67673  11.48817  56.08512
      11   8.65815  55.37671         18.77802   4.165942  11.48817  56.08512   5.87801  55.67673   5.82817  54.66802  11.43829  55.07689
      11   8.60830  54.36776         18.79247   4.170957  11.43829  55.07689   5.82817  54.66802   5.77835  53.65834  11.38844  54.06771
      11   8.55848  53.35786         18.80694   4.175979  11.38844  54.06771   5.77835  53.65834   5.72856  52.64772  11.33861  53.05758
      11   8.50868  52.34700         18.82141   4.181005  11.33861  53.05758   5.72856  52.64772   5.67879  51.63614  11.28880  52.04649
      11   8.45890  51.33519         18.83589   4.186037  11.28880  52.04649   5.67879  51.63614   5.62904  50.62360  11.23901  51.03444
      11   8.40915  50.32242         18.85039   4.191074  11.23901  51.03444   5.62904  50.62360   5.57931  49.61010  11.18925  50.02144
      11   8.35941  49.30869         18.86489   4.196117  11.18925  50.02144   5.57931  49.61010   5.52961  48.59564  11.13951  49.00748
      11   8.30970  48.29400         18.87941   4.201165  11.13951  49.00748   5.52961  48.59564   5.47993  47.58023  11.08979  47.99255
      11   8.26001  47.27835         18.89394   4.206218  11.08979  47.99255   5.47993  47.58023   5.43027  46.56385  11.04010  46.97667
      11   8.21035  46.26174         18.90848   4.211277  11.04010  46.97667   5.43027  46.56385   5.38063  45.54651  10.99043  45.95983
      11   8.16071  45.24417         18.92303   4.216341  10.99043  45.95983   5.38063  45.54651   5.33102  44.52821  10.94078  44.94202
      11   8.11109  44.22563         18.93759   4.221411  10.94078  44.94202   5.33102  44.52821   5.28144  43.50895  10.89116  43.92326
      11   8.06150  43.20613         18.95216   4.226486  10.89116  43.92326   5.28144  43.50895   5.23187  42.48872  10.84156  42.90352
      11   8.01193  42.18567         18.96675   4.231567  10.84156  42.90352   5.23187  42.48872   5.18233  41.46752  10.79198  41.88282
      11   7.96238  41.16424         18.98134   4.236653  10.79198  41.88282   5.18233  41.46752   5.13282  40.44536  10.74243  40.86116
      11   7.91286  40.14184         18.99595   4.241744  10.74243  40.86116   5.13282  40.44536   5.08333  39.42222  10.69290  39.83853
      11   7.86336  39.11847         19.01057   4.246841  10.69290  39.83853   5.08333  39.42222   5.03386  38.39812  10.64339  38.81492
      11   7.81389  38.09414         19.02520   4.251944  10.64339  38.81492   5.03386  38.39812   4.98441  37.37305  10.59391  37.79035
      11   7.76444  37.06883         19.03984   4.257051  10.59391  37.79035   4.98441  37.37305   4.93499  36.34701  10.54446  36.76481
      11   7.71501  36.04255         19.05449   4.262165  10.54446  36.76481   4.93499  36.34701   4.88560  35.32000  10.49502  35.73830
      11   7.66561  35.01530         19.06915   4.267284  10.49502  35.73830   4.88560  35.32000   4.83623  34.29201  10.44562  34.71081
      11   7.61623  33.98708         19.08382   4.272408  10.44562  34.71081   4.83623  34.29201   4.78688  33.26305  10.39623  33.68235
      11   7.56688  32.95788         19.09851   4.277538  10.39623  33.68235   4.78688  33.26305   4.73756  32.23311  10.34687  32.65292
      11   7.51755  31.92771         19.11321   4.282673  10.34687  32.65292   4.73756  32.23311   4.68826  31.20220  10.29754  31.62251
      11   7.46825  30.89656         19.12792   4.287814  10.29754  31.62251   4.68826  31.20220   4.63899  30.17031  10.24823  30.59112
      11   7.41897  29.86443         19.14263   4.292960  10.24823  30.59112   4.63899  30.17031   4.58975  29.13744  10.19895  29.55876
      11   7.36972  28.83132         19.15737   4.298112  10.19895  29.55876   4.58975  29.13744   4.54052  28.10359  10.14969  28.52542
      11   7.32049  27.79724         19.17211   4.303270  10.14969  28.52542   4.54052  28.10359   4.49133  27.06876  10.10045  27.49109
      11   7.27129  26.76217         19.18686   4.308433  10.10045  27.49109   4.49133  27.06876   4.44216  26.03295  10.05124  26.45579
      11   7.22211  25.72612         19.20163   4.313601  10.05124  26.45579   4.44216  26.03295   4.39301  24.99616  10.00206  25.41950
      11   7.17296  24.68909         19.21640   4.318775  10.00206  25.41950   4.39301  24.99616   4.34389  23.95839   9.95290  24.38223
      11   7.12383  23.65108         19.23119   4.323955   9.95290  24.38223   4.34389  23.95839   4.29480  22.91963   9.90377  23.34398
      11   7.07474  22.61208         19.24599   4.329140   9.90377  23.34398   4.29480  22.91963   4.24573  21.87988   9.85467  22.30474
      11   7.02566  21.57209         19.26080   4.334331   9.85467  22.30474   4.24573  21.87988   4.19669  20.83915   9.80559  21.26452
      11   6.97661  20.53112         19.27562   4.339527   9.80559  21.26452   4.19669  20.83915   4.14768  19.79743   9.75653  20.22331
      11   6.92759  19.48916         19.29045   4.344729   9.75653  20.22331   4.14768  19.79743   4.09869  18.75472   9.70750  19.18111
      11   6.87860  18.44621         19.30530   4.349937   9.70750  19.18111   4.09869  18.75472   4.04973  17.71102   9.65850  18.13792
      11   6.82963  17.40227         19.32015   4.355150   9.65850  18.13792   4.04973  17.71102   4.00079  16.66633   9.60953  17.09374
      11   6.78069  16.35734         19.33502   4.360369   9.60953  17.09374   4.00079  16.66633   3.95188  15.62065   9.56058  16.04857
      11   6.73177  15.31142         19.34990   4.365593   9.56058  16.04857   3.95188  15.62065   3.90300  14.57397   9.51166  15.00241
      11   6.68288  14.26451         19.36479   4.370823   9.51166  15.00241   3.90300  14.57397   3.85414  13.52630   9.46276  13.95525
      11   6.63402  13.21660         19.37969   4.376059   9.46276  13.95525   3.85414  13.52630   3.80531  12.47764   9.41389  12.90710
      11   6.58519  12.16769         19.39461   4.381300   9.41389  12.90710   3.80531  12.47764   3.75651  11.42798   9.36505  11.85795
      11   6.53638  11.11779         19.40953   4.386547   9.36505  11.85795   3.75651  11.42798   3.70774  10.37732   9.31624  10.80781
      11   6.48760  10.06689         19.42447   4.391800   9.31624  10.80781   3.70774  10.37732   3.65899   9.32567   9.26745   9.75667
      11   6.43884   9.01499         19.43941   4.397058   9.26745   9.75667   3.65899   9.32567   3.61027   8.27301   9.21869   8.70453
      11   6.39012   7.96210         19.45437   4.402322   9.21869   8.70453   3.61027   8.27301   3.56158   7.21936   9.16996   7.65139
      11   6.34142   6.90820         19.46934   4.407591   9.16996   7.65139   3.56158   7.21936   3.51291   6.16470   9.12126   6.59725
      11   6.29275   5.85330         19.48433   4.412867   9.12126   6.59725   3.51291   6.16470   3.46428   5.10904   9.07258   5.54211
      11   6.24411   4.79740         19.49932   4.418148   9.07258   5.54211   3.46428   5.10904   3.41567   4.05238   9.02393   4.48596
      11   6.19549   3.74049         19.51432   4.423434   9.02393   4.48596   3.41567   4.05238   3.36709   2.99471   8.97531   3.42881
      11   6.14691   2.68258         19.52934   4.428727   8.97531   3.42881   3.36709   2.99471   3.31854   1.93604   8.92672   2.37066
      11   6.09835   1.62366         19.54437   4.434025   8.92672   2.37066   3.31854   1.93604   3.27001   0.87636   8.87816   1.31150
      11   6.04982   0.56374         19.55941   4.439329   8.87816   1.31150   3.27001   0.87636   3.22152  -0.18433   8.82962   0.25133
