\wavsamp version 5.1 (Wed Apr 20 08:45:04 PDT 2005)
\processing time 15:54:23 PST 08/01/2005
\character channelID = 2
| order |x_center |y_center |   wavelength   |  angle   |   x0    |   y0    |   x1    |   y1    |   x2    |   y2    |   x3    |   y3    |
| int   |  real   |  real   |    real        |   real   |  real   |  real   |  real   |  real   |  real   |  real   |  real   |  real   |
       2  77.90093  80.48404         13.90000  -1.200000  94.87946  80.58976  60.88692  81.30181  60.92140  80.37832  94.91395  79.66628
       2  77.93344  79.56056         13.98468  -1.200000  94.91395  79.66628  60.92140  80.37832  60.95199  79.45484  94.94453  78.74280
       2  77.96217  78.63708         14.06935  -1.200000  94.94453  78.74280  60.95199  79.45484  60.97891  78.53136  94.97145  77.81931
       2  77.98733  77.71359         14.15403  -1.200000  94.97145  77.81931  60.97891  78.53136  61.00237  77.60787  94.99492  76.89583
       2  78.00915  76.79011         14.23871  -1.200000  94.99492  76.89583  61.00237  77.60787  61.02260  76.68439  95.01514  75.97235
       2  78.02784  75.86663         14.32338  -1.200000  95.01514  75.97235  61.02260  76.68439  61.03980  75.76091  95.03234  75.04886
       2  78.04360  74.94314         14.40806  -1.200000  95.03234  75.04886  61.03980  75.76091  61.05418  74.83742  95.04672  74.12538
       2  78.05664  74.01966         14.49274  -1.200000  95.04672  74.12538  61.05418  74.83742  61.06593  73.91394  95.05848  73.20190
       2  78.06716  73.09618         14.57741  -1.200000  95.05848  73.20190  61.06593  73.91394  61.07526  72.99046  95.06780  72.27841
       2  78.07535  72.17269         14.66209  -1.200000  95.06780  72.27841  61.07526  72.99046  61.08235  72.06697  95.07490  71.35493
       2  78.08139  71.24921         14.74677  -1.200000  95.07490  71.35493  61.08235  72.06697  61.08740  71.14349  95.07994  70.43145
       2  78.08548  70.32573         14.83145  -1.200000  95.07994  70.43145  61.08740  71.14349  61.09057  70.22001  95.08311  69.50797
       2  78.08778  69.40224         14.91612  -1.200000  95.08311  69.50797  61.09057  70.22001  61.09205  69.29652  95.08460  68.58448
       2  78.08849  68.47876         15.00080  -1.200000  95.08460  68.58448  61.09205  69.29652  61.09202  68.37304  95.08456  67.66100
       2  78.08775  67.55528         15.08548  -1.200000  95.08456  67.66100  61.09202  68.37304  61.09063  67.44956  95.08317  66.73752
       2  78.08575  66.63179         15.17015  -1.200000  95.08317  66.73752  61.09063  67.44956  61.08805  66.52607  95.08060  65.81403
       2  78.08264  65.70831         15.25483  -1.200000  95.08060  65.81403  61.08805  66.52607  61.08444  65.60259  95.07699  64.89055
       2  78.07857  64.78483         15.33951  -1.200000  95.07699  64.89055  61.08444  65.60259  61.07996  64.67911  95.07250  63.96707
       2  78.07370  63.86134         15.42418  -1.200000  95.07250  63.96707  61.07996  64.67911  61.07474  63.75562  95.06728  63.04358
       2  78.06817  62.93786         15.50886  -1.200000  95.06728  63.04358  61.07474  63.75562  61.06894  62.83214  95.06148  62.12010
       2  78.06213  62.01438         15.59354  -1.200000  95.06148  62.12010  61.06894  62.83214  61.06269  61.90866  95.05523  61.19662
       2  78.05571  61.09090         15.67821  -1.200000  95.05523  61.19662  61.06269  61.90866  61.05612  60.98517  95.04867  60.27313
       2  78.04904  60.16741         15.76289  -1.200000  95.04867  60.27313  61.05612  60.98517  61.04938  60.06169  95.04192  59.34965
       2  78.04224  59.24393         15.84757  -1.200000  95.04192  59.34965  61.04938  60.06169  61.04257  59.13821  95.03511  58.42617
       2  78.03545  58.32045         15.93224  -1.200000  95.03511  58.42617  61.04257  59.13821  61.03583  58.21472  95.02837  57.50268
       2  78.02878  57.39696         16.01692  -1.200000  95.02837  57.50268  61.03583  58.21472  61.02926  57.29124  95.02180  56.57920
       2  78.02235  56.47348         16.10160  -1.200000  95.02180  56.57920  61.02926  57.29124  61.02298  56.36776  95.01552  55.65572
       2  78.01625  55.55000         16.18628  -1.200000  95.01552  55.65572  61.02298  56.36776  61.01709  55.44427  95.00963  54.73223
       2  78.01060  54.62651         16.27095  -1.200000  95.00963  54.73223  61.01709  55.44427  61.01170  54.52079  95.00424  53.80875
       2  78.00549  53.70303         16.35563  -1.200000  95.00424  53.80875  61.01170  54.52079  61.00690  53.59731  94.99944  52.88527
       2  78.00102  52.77955         16.44031  -1.200000  94.99944  52.88527  61.00690  53.59731  61.00278  52.67383  94.99532  51.96178
       2  77.99727  51.85606         16.52498  -1.200000  94.99532  51.96178  61.00278  52.67383  60.99943  51.75034  94.99197  51.03830
       2  77.99434  50.93258         16.60966  -1.200000  94.99197  51.03830  60.99943  51.75034  60.99693  50.82686  94.98947  50.11482
       2  77.99230  50.00910         16.69434  -1.200000  94.98947  50.11482  60.99693  50.82686  60.99536  49.90338  94.98791  49.19133
       2  77.99122  49.08561         16.77901  -1.200000  94.98791  49.19133  60.99536  49.90338  60.99480  48.97989  94.98734  48.26785
       2  77.99118  48.16213         16.86369  -1.200000  94.98734  48.26785  60.99480  48.97989  60.99530  48.05641  94.98784  47.34437
       2  77.99225  47.23865         16.94837  -1.200000  94.98784  47.34437  60.99530  48.05641  60.99694  47.13293  94.98948  46.42088
       2  77.99447  46.31516         17.03304  -1.200000  94.98948  46.42088  60.99694  47.13293  60.99977  46.20944  94.99231  45.49740
       2  77.99792  45.39168         17.11772  -1.200000  94.99231  45.49740  60.99977  46.20944  61.00385  45.28596  94.99639  44.57392
       2  78.00264  44.46820         17.20240  -1.200000  94.99639  44.57392  61.00385  45.28596  61.00922  44.36248  95.00176  43.65043
       2  78.00868  43.54471         17.28707  -1.200000  95.00176  43.65043  61.00922  44.36248  61.01594  43.43899  95.00848  42.72695
       2  78.01608  42.62123         17.37175  -1.200000  95.00848  42.72695  61.01594  43.43899  61.02403  42.51551  95.01657  41.80347
       2  78.02487  41.69775         17.45643  -1.200000  95.01657  41.80347  61.02403  42.51551  61.03354  41.59203  95.02608  40.87998
       2  78.03510  40.77426         17.54111  -1.200000  95.02608  40.87998  61.03354  41.59203  61.04449  40.66854  95.03703  39.95650
       2  78.04679  39.85078         17.62578  -1.200000  95.03703  39.95650  61.04449  40.66854  61.05691  39.74506  95.04946  39.03302
       2  78.05996  38.92730         17.71046  -1.200000  95.04946  39.03302  61.05691  39.74506  61.07083  38.82158  95.06337  38.10953
       2  78.07462  38.00381         17.79514  -1.200000  95.06337  38.10953  61.07083  38.82158  61.08625  37.89809  95.07880  37.18605
       2  78.09081  37.08033         17.87981  -1.200000  95.07880  37.18605  61.08625  37.89809  61.10320  36.97461  95.09574  36.26257
       2  78.10851  36.15685         17.96449  -1.200000  95.09574  36.26257  61.10320  36.97461  61.12167  36.05113  95.11421  35.33908
       2  78.12775  35.23336         18.04917  -1.200000  95.11421  35.33908  61.12167  36.05113  61.14166  35.12764  95.13421  34.41560
       2  78.14851  34.30988         18.13384  -1.200000  95.13421  34.41560  61.14166  35.12764  61.16319  34.20416  95.15573  33.49212
       2  78.17079  33.38640         18.21852  -1.200000  95.15573  33.49212  61.16319  34.20416  61.18623  33.28068  95.17877  32.56863
       2  78.19458  32.46291         18.30320  -1.200000  95.17877  32.56863  61.18623  33.28068  61.21077  32.35719  95.20332  31.64515
       2  78.21988  31.53943         18.38787  -1.200000  95.20332  31.64515  61.21077  32.35719  61.23681  31.43371  95.22935  30.72167
       2  78.24665  30.61595         18.47255  -1.200000  95.22935  30.72167  61.23681  31.43371  61.26431  30.51023  95.25685  29.79818
       2  78.27487  29.69246         18.55723  -1.200000  95.25685  29.79818  61.26431  30.51023  61.29325  29.58674  95.28579  28.87470
       2  78.30452  28.76898         18.64190  -1.200000  95.28579  28.87470  61.29325  29.58674  61.32360  28.66326  95.31615  27.95122
       2  78.33557  27.84550         18.72658  -1.200000  95.31615  27.95122  61.32360  28.66326  61.35533  27.73978  95.34787  27.02773
       2  78.36797  26.92201         18.81126  -1.200000  95.34787  27.02773  61.35533  27.73978  61.38839  26.81629  95.38093  26.10425
       2  78.40167  25.99853         18.89594  -1.200000  95.38093  26.10425  61.38839  26.81629  61.42273  25.89281  95.41528  25.18077
       2  78.43665  25.07505         18.98061  -1.200000  95.41528  25.18077  61.42273  25.89281  61.45832  24.96933  95.45086  24.25728
       2  78.47283  24.15156         19.06529  -1.200000  95.45086  24.25728  61.45832  24.96933  61.49509  24.04584  95.48763  23.33380
       2  78.51017  23.22808         19.14997  -1.200000  95.48763  23.33380  61.49509  24.04584  61.53298  23.12236  95.52552  22.41032
       2  78.54860  22.30460         19.23464  -1.200000  95.52552  22.41032  61.53298  23.12236  61.57193  22.19888  95.56448  21.48683
       2  78.58806  21.38111         19.31932  -1.200000  95.56448  21.48683  61.57193  22.19888  61.61188  21.27539  95.60442  20.56335
       2  78.62847  20.45763         19.40400  -1.200000  95.60442  20.56335  61.61188  21.27539  61.65274  20.35191  95.64528  19.63987
       2  78.66976  19.53415         19.48867  -1.200000  95.64528  19.63987  61.65274  20.35191  61.69443  19.42843  95.68698  18.71638
       2  78.71184  18.61066         19.57335  -1.200000  95.68698  18.71638  61.69443  19.42843  61.73689  18.50494  95.72943  17.79290
       2  78.75464  17.68718         19.65803  -1.200000  95.72943  17.79290  61.73689  18.50494  61.78001  17.58146  95.77255  16.86942
       2  78.79807  16.76370         19.74270  -1.200000  95.77255  16.86942  61.78001  17.58146  61.82371  16.65798  95.81625  15.94593
       2  78.84202  15.84021         19.82738  -1.200000  95.81625  15.94593  61.82371  16.65798  61.86789  15.73449  95.86043  15.02245
       2  78.88640  14.91673         19.91206  -1.200000  95.86043  15.02245  61.86789  15.73449  61.91244  14.81101  95.90498  14.09897
       2  78.93110  13.99325         19.99673  -1.200000  95.90498  14.09897  61.91244  14.81101  61.95726  13.88753  95.94981  13.17548
       2  78.97601  13.06976         20.08141  -1.200000  95.94981  13.17548  61.95726  13.88753  62.00225  12.96404  95.99479  12.25200
       2  79.02103  12.14628         20.16609  -1.200000  95.99479  12.25200  62.00225  12.96404  62.04727  12.04056  96.03981  11.32852
       2  79.06603  11.22280         20.25077  -1.200000  96.03981  11.32852  62.04727  12.04056  62.09221  11.11708  96.08476  10.40504
       2  79.11089  10.29931         20.33544  -1.200000  96.08476  10.40504  62.09221  11.11708  62.13696  10.19359  96.12950   9.48155
       2  79.15548   9.37583         20.42012  -1.200000  96.12950   9.48155  62.13696  10.19359  62.18136   9.27011  96.17391   8.55807
       2  79.19967   8.45235         20.50480  -1.200000  96.17391   8.55807  62.18136   9.27011  62.22530   8.34663  96.21784   7.63459
       2  79.24332   7.52886         20.58947  -1.200000  96.21784   7.63459  62.22530   8.34663  62.26863   7.42314  96.26117   6.71110
       2  79.28629   6.60538         20.67415  -1.200000  96.26117   6.71110  62.26863   7.42314  62.31120   6.49966  96.30375   5.78762
       2  79.32843   5.68190         20.75883  -1.200000  96.30375   5.78762  62.31120   6.49966  62.35287   5.57618  96.34542   4.86414
       2  79.36960   4.75841         20.84350  -1.200000  96.34542   4.86414  62.35287   5.57618  62.39349   4.65269  96.38603   3.94065
       2  79.40962   3.83493         20.92818  -1.200000  96.38603   3.94065  62.39349   4.65269  62.43289   3.72921  96.42543   3.01717
       2  79.44835   2.91145         21.01286  -1.200000  96.42543   3.01717  62.43289   3.72921  62.47091   2.80573  96.46345   2.09369
       2  79.48562   1.98797         21.09753  -1.200000  96.46345   2.09369  62.47091   2.80573  62.50738   1.88224  96.49993   1.17020
       2  79.52126   1.06448         21.18221  -1.200000  96.49993   1.17020  62.50738   1.88224  62.54214   0.95876  96.53468   0.24672
       2  79.55509   0.14100         21.26689  -1.200000  96.53468   0.24672  62.54214   0.95876  62.57500   0.03528  96.56754  -0.67676
       3  80.40680 128.30551         19.14997  -1.200000  97.40987 128.41123  63.41732 129.12327  63.40235 128.19979  97.39489 127.48775
       3  80.38907 127.38203         19.31932  -1.200000  97.39489 127.48775  63.40235 128.19979  63.38186 127.27631  97.37441 126.56426
       3  80.36582 126.45854         19.48867  -1.200000  97.37441 126.56426  63.38186 127.27631  63.35587 126.35282  97.34841 125.64078
       3  80.33707 125.53506         19.65803  -1.200000  97.34841 125.64078  63.35587 126.35282  63.32436 125.42934  97.31690 124.71730
       3  80.30281 124.61158         19.82738  -1.200000  97.31690 124.71730  63.32436 125.42934  63.28734 124.50586  97.27988 123.79381
       3  80.26304 123.68809         19.99673  -1.200000  97.27988 123.79381  63.28734 124.50586  63.24481 123.58237  97.23735 122.87033
       3  80.21775 122.76461         20.16609  -1.200000  97.23735 122.87033  63.24481 123.58237  63.19677 122.65889  97.18931 121.94685
       3  80.16696 121.84113         20.33544  -1.200000  97.18931 121.94685  63.19677 122.65889  63.14322 121.73540  97.13576 121.02336
       3  80.11065 120.91764         20.50480  -1.200000  97.13576 121.02336  63.14322 121.73540  63.08416 120.81192  97.07670 120.09988
       3  80.04884 119.99416         20.67415  -1.200000  97.07670 120.09988  63.08416 120.81192  63.01959 119.88844  97.01213 119.17640
       3  79.98151 119.07067         20.84350  -1.200000  97.01213 119.17640  63.01959 119.88844  62.94951 118.96495  96.94205 118.25291
       3  79.90867 118.14719         21.01286  -1.200000  96.94205 118.25291  62.94951 118.96495  62.87392 118.04147  96.86646 117.32943
       3  79.83032 117.22371         21.18221  -1.200000  96.86646 117.32943  62.87392 118.04147  62.79281 117.11799  96.78535 116.40594
       3  79.74647 116.30022         21.35156  -1.200000  96.78535 116.40594  62.79281 117.11799  62.70620 116.19450  96.69874 115.48246
       3  79.65710 115.37674         21.52092  -1.200000  96.69874 115.48246  62.70620 116.19450  62.61407 115.27102  96.60662 114.55898
       3  79.56222 114.45326         21.69027  -1.200000  96.60662 114.55898  62.61407 115.27102  62.51644 114.34754  96.50898 113.63549
       1  42.46019 126.39268         19.65803  -1.200000  59.48334 126.51788  25.49080 127.22993  25.43723 126.26761  59.42977 125.55557
       1  42.40701 125.43063         19.82738  -1.200000  59.42977 125.55557  25.43723 126.26761  25.38443 125.30583  59.37697 124.59379
       1  42.35459 124.46912         19.99673  -1.200000  59.37697 124.59379  25.38443 125.30583  25.33240 124.34458  59.32494 123.63253
       1  42.30295 123.50813         20.16609  -1.200000  59.32494 123.63253  25.33240 124.34458  25.28114 123.38385  59.27368 122.67181
       1  42.25207 122.54767         20.33544  -1.200000  59.27368 122.67181  25.28114 123.38385  25.23065 122.42366  59.22320 121.71162
       1  42.20197 121.58774         20.50480  -1.200000  59.22320 121.71162  25.23065 122.42366  25.18093 121.46400  59.17348 120.75196
       1  42.15263 120.62835         20.67415  -1.200000  59.17348 120.75196  25.18093 121.46400  25.13198 120.50487  59.12453 119.79283
       1  42.10407 119.66948         20.84350  -1.200000  59.12453 119.79283  25.13198 120.50487  25.08380 119.54627  59.07635 118.83423
       1  42.05627 118.71115         21.01286  -1.200000  59.07635 118.83423  25.08380 119.54627  25.03639 118.58820  59.02894 117.87616
       1  42.00925 117.75335         21.18221  -1.200000  59.02894 117.87616  25.03639 118.58820  24.98975 117.63066  58.98230 116.91862
       1  41.96300 116.79607         21.35156  -1.200000  58.98230 116.91862  24.98975 117.63066  24.94389 116.67366  58.93643 115.96161
       1  41.91751 115.83933         21.52092  -1.200000  58.93643 115.96161  24.94389 116.67366  24.89879 115.71718  58.89133 115.00514
       1  41.87280 114.88312         21.69027  -1.200000  58.89133 115.00514  24.89879 115.71718  24.85446 114.76123  58.84700 114.04919
       1  41.82885 113.92744         21.85963  -1.200000  58.84700 114.04919  24.85446 114.76123  24.81090 113.80582  58.80344 113.09378
       1  41.78568 112.97229         22.02898  -1.200000  58.80344 113.09378  24.81090 113.80582  24.76811 112.85093  58.76065 112.13889
       1  41.74327 112.01767         22.19833  -1.200000  58.76065 112.13889  24.76811 112.85093  24.72609 111.89658  58.71863 111.18454
       1  41.70164 111.06358         22.36769  -1.200000  58.71863 111.18454  24.72609 111.89658  24.68484 110.94275  58.67738 110.23071
       1  41.66077 110.11002         22.53704  -1.200000  58.67738 110.23071  24.68484 110.94275  24.64436 109.98946  58.63690 109.27742
       1  41.62068 109.15699         22.70639  -1.200000  58.63690 109.27742  24.64436 109.98946  24.60465 109.03670  58.59719 108.32466
       1  41.58136 108.20450         22.87575  -1.200000  58.59719 108.32466  24.60465 109.03670  24.56571 108.08447  58.55825 107.37243
       1  41.54280 107.25253         23.04510  -1.200000  58.55825 107.37243  24.56571 108.08447  24.52754 107.13277  58.52009 106.42072
       1  41.50502 106.30109         23.21446  -1.200000  58.52009 106.42072  24.52754 107.13277  24.49014 106.18160  58.48269 105.46955
       1  41.46800 105.35019         23.38381  -1.200000  58.48269 105.46955  24.49014 106.18160  24.45351 105.23096  58.44606 104.51891
       1  41.43176 104.39982         23.55316  -1.200000  58.44606 104.51891  24.45351 105.23096  24.41766 104.28085  58.41020 103.56881
       1  41.39629 103.44997         23.72252  -1.200000  58.41020 103.56881  24.41766 104.28085  24.38257 103.33127  58.37511 102.61923
       1  41.36158 102.50066         23.89187  -1.200000  58.37511 102.61923  24.38257 103.33127  24.34825 102.38222  58.34079 101.67018
       1  41.32765 101.55188         24.06122  -1.200000  58.34079 101.67018  24.34825 102.38222  24.31470 101.43371  58.30724 100.72166
       1  41.29448 100.60362         24.23058  -1.200000  58.30724 100.72166  24.31470 101.43371  24.28192 100.48572  58.27446  99.77368
       1  41.26209  99.65590         24.39993  -1.200000  58.27446  99.77368  24.28192 100.48572  24.24991  99.53826  58.24245  98.82622
       1  41.23047  98.70871         24.56929  -1.200000  58.24245  98.82622  24.24991  99.53826  24.21867  98.59134  58.21121  97.87930
       1  41.19961  97.76205         24.73864  -1.200000  58.21121  97.87930  24.21867  98.59134  24.18820  97.64494  58.18074  96.93290
       1  41.16953  96.81592         24.90799  -1.200000  58.18074  96.93290  24.18820  97.64494  24.15850  96.69908  58.15105  95.98704
       1  41.14021  95.87033         25.07735  -1.200000  58.15105  95.98704  24.15850  96.69908  24.12957  95.75375  58.12212  95.04170
       1  41.11167  94.92526         25.24670  -1.200000  58.12212  95.04170  24.12957  95.75375  24.10142  94.80894  58.09396  94.09690
       1  41.08390  93.98072         25.41605  -1.200000  58.09396  94.09690  24.10142  94.80894  24.07403  93.86467  58.06657  93.15263
       1  41.05689  93.03672         25.58541  -1.200000  58.06657  93.15263  24.07403  93.86467  24.04741  92.92093  58.03995  92.20889
       1  41.03066  92.09324         25.75476  -1.200000  58.03995  92.20889  24.04741  92.92093  24.02156  91.97772  58.01410  91.26568
       1  41.00519  91.15029         25.92412  -1.200000  58.01410  91.26568  24.02156  91.97772  23.99648  91.03504  57.98902  90.32300
       1  40.98050  90.20788         26.09347  -1.200000  57.98902  90.32300  23.99648  91.03504  23.97217  90.09289  57.96471  89.38085
       1  40.95658  89.26600         26.26282  -1.200000  57.96471  89.38085  23.97217  90.09289  23.94863  89.15127  57.94118  88.43923
       1  40.93342  88.32464         26.43218  -1.200000  57.94118  88.43923  23.94863  89.15127  23.92586  88.21019  57.91841  87.49814
       1  40.91104  87.38382         26.60153  -1.200000  57.91841  87.49814  23.92586  88.21019  23.90387  87.26963  57.89641  86.55759
       1  40.88943  86.44353         26.77088  -1.200000  57.89641  86.55759  23.90387  87.26963  23.88264  86.32960  57.87518  85.61756
       1  40.86858  85.50377         26.94024  -1.200000  57.87518  85.61756  23.88264  86.32960  23.86218  85.39011  57.85472  84.67807
       1  40.84851  84.56454         27.10959  -1.200000  57.85472  84.67807  23.86218  85.39011  23.84249  84.45114  57.83503  83.73910
       1  40.82921  83.62584         27.27895  -1.200000  57.83503  83.73910  23.84249  84.45114  23.82357  83.51271  57.81611  82.80067
       1  40.81067  82.68767         27.44830  -1.200000  57.81611  82.80067  23.82357  83.51271  23.80542  82.57480  57.79796  81.86276
       1  40.79291  81.75003         27.61765  -1.200000  57.79796  81.86276  23.80542  82.57480  23.78804  81.63743  57.78059  80.92539
       1  40.77591  80.81292         27.78701  -1.200000  57.78059  80.92539  23.78804  81.63743  23.77144  80.70059  57.76398  79.98855
       1  40.75969  79.87635         27.95636  -1.200000  57.76398  79.98855  23.77144  80.70059  23.75560  79.76428  57.74814  79.05224
       1  40.74424  78.94030         28.12571  -1.200000  57.74814  79.05224  23.75560  79.76428  23.74053  78.82850  57.73307  78.11645
       1  40.72955  78.00478         28.29507  -1.200000  57.73307  78.11645  23.74053  78.82850  23.72623  77.89325  57.71877  77.18120
       1  40.71564  77.06980         28.46442  -1.200000  57.71877  77.18120  23.72623  77.89325  23.71270  76.95853  57.70524  76.24648
       1  40.70250  76.13534         28.63378  -1.200000  57.70524  76.24648  23.71270  76.95853  23.69994  76.02434  57.69249  75.31230
       1  40.69012  75.20142         28.80313  -1.200000  57.69249  75.31230  23.69994  76.02434  23.68795  75.09068  57.68050  74.37864
       1  40.67852  74.26803         28.97248  -1.200000  57.68050  74.37864  23.68795  75.09068  23.67674  74.15755  57.66928  73.44551
       1  40.66769  73.33517         29.14184  -1.200000  57.66928  73.44551  23.67674  74.15755  23.66629  73.22495  57.65883  72.51291
       1  40.65762  72.40283         29.31119  -1.200000  57.65883  72.51291  23.66629  73.22495  23.65661  72.29289  57.64915  71.58085
       1  40.64833  71.47103         29.48054  -1.200000  57.64915  71.58085  23.65661  72.29289  23.64770  71.36135  57.64024  70.64931
       1  40.63981  70.53976         29.64990  -1.200000  57.64024  70.64931  23.64770  71.36135  23.63956  70.43035  57.63211  69.71830
       1  40.63205  69.60902         29.81925  -1.200000  57.63211  69.71830  23.63956  70.43035  23.63219  69.49987  57.62474  68.78783
       1  40.62507  68.67881         29.98861  -1.200000  57.62474  68.78783  23.63219  69.49987  23.62560  68.56993  57.61814  67.85789
       1  40.61886  67.74914         30.15796  -1.200000  57.61814  67.85789  23.62560  68.56993  23.61977  67.64052  57.61231  66.92847
       1  40.61341  66.81999         30.32731  -1.200000  57.61231  66.92847  23.61977  67.64052  23.61471  66.71163  57.60725  65.99959
       1  40.60874  65.89137         30.49667  -1.200000  57.60725  65.99959  23.61471  66.71163  23.61042  65.78328  57.60297  65.07124
       1  40.60484  64.96328         30.66602  -1.200000  57.60297  65.07124  23.61042  65.78328  23.60690  64.85546  57.59945  64.14342
       1  40.60171  64.03573         30.83537  -1.200000  57.59945  64.14342  23.60690  64.85546  23.60416  63.92817  57.59670  63.21613
       1  40.59934  63.10870         31.00473  -1.200000  57.59670  63.21613  23.60416  63.92817  23.60218  63.00141  57.59472  62.28937
       1  40.59775  62.18221         31.17408  -1.200000  57.59472  62.28937  23.60218  63.00141  23.60097  62.07518  57.59351  61.36314
       1  40.59693  61.25624         31.34344  -1.200000  57.59351  61.36314  23.60097  62.07518  23.60053  61.14948  57.59307  60.43744
       1  40.59687  60.33081         31.51279  -1.200000  57.59307  60.43744  23.60053  61.14948  23.60086  60.22432  57.59341  59.51227
       1  40.59759  59.40591         31.68214  -1.200000  57.59341  59.51227  23.60086  60.22432  23.60197  59.29968  57.59451  58.58764
       1  40.59908  58.48154         31.85150  -1.200000  57.59451  58.58764  23.60197  59.29968  23.60384  58.37557  57.59638  57.66353
       1  40.60133  57.55770         32.02085  -1.200000  57.59638  57.66353  23.60384  58.37557  23.60648  57.45200  57.59902  56.73995
       1  40.60436  56.63439         32.19020  -1.200000  57.59902  56.73995  23.60648  57.45200  23.60989  56.52895  57.60244  55.81691
       1  40.60816  55.71161         32.35956  -1.200000  57.60244  55.81691  23.60989  56.52895  23.61407  55.60644  57.60662  54.89439
       1  40.61273  54.78936         32.52891  -1.200000  57.60662  54.89439  23.61407  55.60644  23.61903  54.68445  57.61157  53.97241
       1  40.61806  53.86764         32.69827  -1.200000  57.61157  53.97241  23.61903  54.68445  23.62475  53.76300  57.61729  53.05096
       1  40.62417  52.94645         32.86762  -1.200000  57.61729  53.05096  23.62475  53.76300  23.63124  52.84208  57.62378  52.13004
       1  40.63105  52.02579         33.03697  -1.200000  57.62378  52.13004  23.63124  52.84208  23.63850  51.92169  57.63105  51.20964
       1  40.63869  51.10567         33.20633  -1.200000  57.63105  51.20964  23.63850  51.92169  23.64654  51.00182  57.63908  50.28978
       1  40.64711  50.18607         33.37568  -1.200000  57.63908  50.28978  23.64654  51.00182  23.65534  50.08249  57.64788  49.37045
       1  40.65630  49.26701         33.54503  -1.200000  57.64788  49.37045  23.65534  50.08249  23.66491  49.16369  57.65745  48.45165
       1  40.66626  48.34847         33.71439  -1.200000  57.65745  48.45165  23.66491  49.16369  23.67525  48.24543  57.66780  47.53338
       1  40.67698  47.43047         33.88374  -1.200000  57.66780  47.53338  23.67525  48.24543  23.68637  47.32769  57.67891  46.61564
       1  40.68848  46.51300         34.05310  -1.200000  57.67891  46.61564  23.68637  47.32769  23.69825  46.41048  57.69079  45.69844
       1  40.70075  45.59605         34.22245  -1.200000  57.69079  45.69844  23.69825  46.41048  23.71090  45.49380  57.70344  44.78176
       1  40.71379  44.67964         34.39180  -1.200000  57.70344  44.78176  23.71090  45.49380  23.72432  44.57766  57.71687  43.86561
       1  40.72759  43.76376         34.56116  -1.200000  57.71687  43.86561  23.72432  44.57766  23.73851  43.66204  57.73106  42.95000
       1  40.74217  42.84841         34.73051  -1.200000  57.73106  42.95000  23.73851  43.66204  23.75348  42.74695  57.74602  42.03491
       1  40.75752  41.93359         34.89986  -1.200000  57.74602  42.03491  23.75348  42.74695  23.76921  41.83240  57.76175  41.12036
       1  40.77364  41.01930         35.06922  -1.200000  57.76175  41.12036  23.76921  41.83240  23.78571  40.91838  57.77826  40.20633
       1  40.79052  40.10554         35.23857  -1.200000  57.77826  40.20633  23.78571  40.91838  23.80298  40.00488  57.79553  39.29284
       1  40.80818  39.19231         35.40793  -1.200000  57.79553  39.29284  23.80298  40.00488  23.82103  39.09192  57.81357  38.37988
       1  40.82661  38.27962         35.57728  -1.200000  57.81357  38.37988  23.82103  39.09192  23.83984  38.17949  57.83238  37.46745
       1  40.84581  37.36745         35.74663  -1.200000  57.83238  37.46745  23.83984  38.17949  23.85942  37.26759  57.85197  36.55555
       1  40.86577  36.45581         35.91599  -1.200000  57.85197  36.55555  23.85942  37.26759  23.87978  36.35622  57.87232  35.64417
       1  40.88651  35.54471         36.08534  -1.200000  57.87232  35.64417  23.87978  36.35622  23.90090  35.44538  57.89344  34.73334
       1  40.90802  34.63414         36.25469  -1.200000  57.89344  34.73334  23.90090  35.44538  23.92279  34.53507  57.91533  33.82303
       1  40.93030  33.72409         36.42405  -1.200000  57.91533  33.82303  23.92279  34.53507  23.94545  33.62529  57.93800  32.91325
       1  40.95335  32.81458         36.59340  -1.200000  57.93800  32.91325  23.94545  33.62529  23.96889  32.71604  57.96143  32.00400
       1  40.97716  31.90560         36.76276  -1.200000  57.96143  32.00400  23.96889  32.71604  23.99309  31.80732  57.98563  31.09528
       1  41.00175  30.99714         36.93211  -1.200000  57.98563  31.09528  23.99309  31.80732  24.01806  30.89914  58.01060  30.18710
       1  41.02711  30.08922         37.10146  -1.200000  58.01060  30.18710  24.01806  30.89914  24.04380  29.99148  58.03635  29.27944
       1  41.05324  29.18183         37.27082  -1.200000  58.03635  29.27944  24.04380  29.99148  24.07032  29.08436  58.06286  28.37232
       1  41.08013  28.27497         37.44017  -1.200000  58.06286  28.37232  24.07032  29.08436  24.09760  28.17776  58.09014  27.46572
       1  41.10780  27.36864         37.60952  -1.200000  58.09014  27.46572  24.09760  28.17776  24.12565  27.27170  58.11820  26.55966
       1  41.13624  26.46284         37.77888  -1.200000  58.11820  26.55966  24.12565  27.27170  24.15448  26.36617  58.14702  25.65412
       1  41.16545  25.55758         37.94823  -1.200000  58.14702  25.65412  24.15448  26.36617  24.18407  25.46116  58.17661  24.74912
       1  41.19543  24.65284         38.11759  -1.200000  58.17661  24.74912  24.18407  25.46116  24.21443  24.55669  58.20697  23.84465
       1  41.22617  23.74863         38.28694  -1.200000  58.20697  23.84465  24.21443  24.55669  24.24557  23.65275  58.23811  22.94071
       1  41.25769  22.84496         38.45629  -1.200000  58.23811  22.94071  24.24557  23.65275  24.27747  22.74934  58.27001  22.03730
       1  41.28998  21.94181         38.62565  -1.200000  58.27001  22.03730  24.27747  22.74934  24.31014  21.84646  58.30268  21.13442
       1  41.32304  21.03920         38.79500  -1.200000  58.30268  21.13442  24.31014  21.84646  24.34358  20.94411  58.33613  20.23207
       1  41.35687  20.13711         38.96435  -1.200000  58.33613  20.23207  24.34358  20.94411  24.37780  20.04229  58.37034  19.33025
       1  41.39146  19.23556         39.13371  -1.200000  58.37034  19.33025  24.37780  20.04229  24.41278  19.14100  58.40532  18.42896
       1  41.42683  18.33454         39.30306  -1.200000  58.40532  18.42896  24.41278  19.14100  24.44853  18.24025  58.44108  17.52821
       1  41.46297  17.43405         39.47242  -1.200000  58.44108  17.52821  24.44853  18.24025  24.48506  17.34002  58.47760  16.62798
       1  41.49988  16.53409         39.64177  -1.200000  58.47760  16.62798  24.48506  17.34002  24.52235  16.44032  58.51489  15.72828
       1  41.53756  15.63465         39.81112  -1.200000  58.51489  15.72828  24.52235  16.44032  24.56041  15.54116  58.55296  14.82912
       1  41.57601  14.73576         39.98048  -1.200000  58.55296  14.82912  24.56041  15.54116  24.59925  14.64253  58.59179  13.93048
       1  41.61522  13.83739         40.14983  -1.200000  58.59179  13.93048  24.59925  14.64253  24.63885  13.74442  58.63139  13.03238
       1  41.65521  12.93955         40.31918  -1.200000  58.63139  13.03238  24.63885  13.74442  24.67922  12.84685  58.67177  12.13481
       1  41.69597  12.04224         40.48854  -1.200000  58.67177  12.13481  24.67922  12.84685  24.72037  11.94981  58.71291  11.23776
       1  41.73750  11.14546         40.65789  -1.200000  58.71291  11.23776  24.72037  11.94981  24.76228  11.05329  58.75482  10.34125
       1  41.77980  10.24922         40.82725  -1.200000  58.75482  10.34125  24.76228  11.05329  24.80496  10.15731  58.79751   9.44527
       1  41.82287   9.35350         40.99660  -1.200000  58.79751   9.44527  24.80496  10.15731  24.84842   9.26186  58.84096   8.54982
       1  41.86670   8.45831         41.16595  -1.200000  58.84096   8.54982  24.84842   9.26186  24.89264   8.36694  58.88518   7.65490
       1  41.91131   7.56366         41.33531  -1.200000  58.88518   7.65490  24.89264   8.36694  24.93763   7.47255  58.93018   6.76051
       1  41.95669   6.66954         41.50466  -1.200000  58.93018   6.76051  24.93763   7.47255  24.98340   6.57869  58.97594   5.86665
       1  42.00284   5.77594         41.67401  -1.200000  58.97594   5.86665  24.98340   6.57869  25.02993   5.68537  59.02247   4.97332
       1  42.04976   4.88288         41.84337  -1.200000  59.02247   4.97332  25.02993   5.68537  25.07723   4.79257  59.06978   4.08053
       1  42.09745   3.99035         42.01272  -1.200000  59.06978   4.08053  25.07723   4.79257  25.12531   3.90030  59.11785   3.18826
       1  42.14590   3.09835         42.18208  -1.200000  59.11785   3.18826  25.12531   3.90030  25.17415   3.00857  59.16669   2.29652
