\comment Wavsamp table for S13.0, 29 Sep 2005, D. Shupe
\processing time 11:45:33 PST 09/29/2005
\wavsamp software version 5.1 (Wed Apr 20 08:45:04 PDT 2005)
\character channelID = 1
| order |x_center |y_center |   wavelength   |  angle   |   x0    |   y0    |   x1    |   y1    |   x2    |   y2    |   x3    |   y3    |
| int   |  real   |  real   |    real        |   real   |  real   |  real   |  real   |  real   |  real   |  real   |  real   |  real   |
      20 120.45426 127.99905          9.86350   6.481150 123.23890 128.78928 117.64985 128.15435 117.66961 127.20881 123.25866 127.84374
      20 120.47402 127.05314          9.87109   6.481150 123.25866 127.84374 117.66961 127.20881 117.68938 126.26255 123.27843 126.89748
      20 120.49380 126.10651          9.87869   6.481150 123.27843 126.89748 117.68938 126.26255 117.70917 125.31555 123.29822 125.95048
      20 120.51360 125.15915          9.88629   6.481150 123.29822 125.95048 117.70917 125.31555 117.72898 124.36783 123.31803 125.00276
      20 120.53341 124.21107          9.89390   6.481150 123.31803 125.00276 117.72898 124.36783 117.74880 123.41937 123.33785 124.05430
      20 120.55324 123.26225          9.90151   6.481150 123.33785 124.05430 117.74880 123.41937 117.76863 122.47019 123.35768 123.10512
      20 120.57308 122.31270          9.90913   6.481150 123.35768 123.10512 117.76863 122.47019 117.78848 121.52028 123.37753 122.15521
      20 120.59294 121.36242          9.91675   6.481150 123.37753 122.15521 117.78848 121.52028 117.80835 120.56963 123.39740 121.20456
      20 120.61281 120.41141          9.92439   6.481150 123.39740 121.20456 117.80835 120.56963 117.82823 119.61826 123.41728 120.25319
      20 120.63270 119.45967          9.93202   6.481150 123.41728 120.25319 117.82823 119.61826 117.84812 118.66615 123.43717 119.30108
      20 120.65260 118.50719          9.93967   6.481150 123.43717 119.30108 117.84812 118.66615 117.86803 117.71331 123.45708 118.34824
      20 120.67252 117.55399          9.94731   6.481150 123.45708 118.34824 117.86803 117.71331 117.88796 116.75974 123.47701 117.39467
      20 120.69245 116.60005          9.95497   6.481150 123.47701 117.39467 117.88796 116.75974 117.90790 115.80543 123.49695 116.44036
      20 120.71240 115.64537          9.96263   6.481150 123.49695 116.44036 117.90790 115.80543 117.92786 114.85039 123.51691 115.48532
      20 120.73237 114.68996          9.97030   6.481150 123.51691 115.48532 117.92786 114.85039 117.94783 113.89461 123.53688 114.52954
      20 120.75235 113.73382          9.97797   6.481150 123.53688 114.52954 117.94783 113.89461 117.96782 112.93810 123.55687 113.57303
      20 120.77234 112.77694          9.98565   6.481150 123.55687 113.57303 117.96782 112.93810 117.98782 111.98085 123.57687 112.61578
      20 120.79236 111.81932          9.99333   6.481150 123.57687 112.61578 117.98782 111.98085 118.00784 111.02286 123.59689 111.65779
      20 120.81238 110.86097         10.00102   6.481150 123.59689 111.65779 118.00784 111.02286 118.02787 110.06414 123.61692 110.69907
      20 120.83242 109.90188         10.00872   6.481150 123.61692 110.69907 118.02787 110.06414 118.04792 109.10468 123.63697 109.73961
      20 120.85248 108.94205         10.01642   6.481150 123.63697 109.73961 118.04792 109.10468 118.06799 108.14448 123.65704 108.77941
      20 120.87255 107.98148         10.02413   6.481150 123.65704 108.77941 118.06799 108.14448 118.08807 107.18355 123.67712 107.81848
      20 120.89264 107.02017         10.03184   6.481150 123.67712 107.81848 118.08807 107.18355 118.10816 106.22187 123.69721 106.85680
      20 120.91274 106.05813         10.03956   6.481150 123.69721 106.85680 118.10816 106.22187 118.12827 105.25945 123.71732 105.89438
      20 120.93286 105.09534         10.04729   6.481150 123.71732 105.89438 118.12827 105.25945 118.14840 104.29630 123.73745 104.93122
      20 120.95300 104.13181         10.05502   6.481150 123.73745 104.93122 118.14840 104.29630 118.16854 103.33240 123.75759 103.96733
      20 120.97315 103.16754         10.06276   6.481150 123.75759 103.96733 118.16854 103.33240 118.18870 102.36776 123.77775 103.00269
      20 120.99331 102.20253         10.07050   6.481150 123.77775 103.00269 118.18870 102.36776 118.20887 101.40237 123.79792 102.03730
      20 121.01349 101.23678         10.07825   6.481150 123.79792 102.03730 118.20887 101.40237 118.22906 100.43625 123.81811 101.07118
      20 121.03369 100.27028         10.08600   6.481150 123.81811 101.07118 118.22906 100.43625 118.24927  99.46938 123.83832 100.10431
      20 121.05390  99.30304         10.09377   6.481150 123.83832 100.10431 118.24927  99.46938 118.26949  98.50177 123.85854  99.13670
      20 121.07413  98.33505         10.10153   6.481150 123.85854  99.13670 118.26949  98.50177 118.28972  97.53341 123.87877  98.16834
      20 121.09437  97.36632         10.10931   6.481150 123.87877  98.16834 118.28972  97.53341 118.30997  96.56431 123.89902  97.19924
      20 121.11463  96.39685         10.11709   6.481150 123.89902  97.19924 118.30997  96.56431 118.33024  95.59446 123.91929  96.22939
      20 121.13490  95.42662         10.12487   6.481150 123.91929  96.22939 118.33024  95.59446 118.35052  94.62386 123.93957  95.25879
      20 121.15519  94.45566         10.13266   6.481150 123.93957  95.25879 118.35052  94.62386 118.37082  93.65252 123.95987  94.28745
      20 121.17550  93.48394         10.14046   6.481150 123.95987  94.28745 118.37082  93.65252 118.39113  92.68043 123.98018  93.31536
      20 121.19582  92.51148         10.14826   6.481150 123.98018  93.31536 118.39113  92.68043 118.41146  91.70759 124.00051  92.34252
      20 121.21616  91.53827         10.15607   6.481150 124.00051  92.34252 118.41146  91.70759 118.43180  90.73401 124.02086  91.36894
      20 121.23651  90.56431         10.16389   6.481150 124.02086  91.36894 118.43180  90.73401 118.45216  89.75967 124.04122  90.39460
      20 121.25688  89.58960         10.17171   6.481150 124.04122  90.39460 118.45216  89.75967 118.47254  88.78459 124.06159  89.41952
      20 121.27726  88.61414         10.17954   6.481150 124.06159  89.41952 118.47254  88.78459 118.49293  87.80875 124.08198  88.44368
      20 121.29766  87.63793         10.18737   6.481150 124.08198  88.44368 118.49293  87.80875 118.51334  86.83217 124.10239  87.46710
      20 121.31808  86.66096         10.19521   6.481150 124.10239  87.46710 118.51334  86.83217 118.53376  85.85483 124.12281  86.48976
      20 121.33851  85.68325         10.20306   6.481150 124.12281  86.48976 118.53376  85.85483 118.55420  84.87674 124.14325  85.51167
      20 121.35895  84.70478         10.21091   6.481150 124.14325  85.51167 118.55420  84.87674 118.57465  83.89790 124.16371  84.53283
      20 121.37942  83.72556         10.21876   6.481150 124.16371  84.53283 118.57465  83.89790 118.59512  82.91830 124.18418  83.55323
      20 121.39989  82.74559         10.22663   6.481150 124.18418  83.55323 118.59512  82.91830 118.61561  81.93795 124.20466  82.57288
      20 121.42039  81.76487         10.23450   6.481150 124.20466  82.57288 118.61561  81.93795 118.63611  80.95685 124.22516  81.59178
      20 121.44090  80.78338         10.24237   6.481150 124.22516  81.59178 118.63611  80.95685 118.65663  79.97499 124.24568  80.60992
      20 121.46142  79.80115         10.25026   6.481150 124.24568  80.60992 118.65663  79.97499 118.67716  78.99238 124.26621  79.62730
      20 121.48196  78.81815         10.25814   6.481150 124.26621  79.62730 118.67716  78.99238 118.69771  78.00900 124.28676  78.64393
      20 121.50252  77.83441         10.26604   6.481150 124.28676  78.64393 118.69771  78.00900 118.71828  77.02488 124.30733  77.65981
      20 121.52309  76.84990         10.27394   6.481150 124.30733  77.65981 118.71828  77.02488 118.73886  76.03999 124.32791  76.67492
      20 121.54368  75.86464         10.28184   6.481150 124.32791  76.67492 118.73886  76.03999 118.75945  75.05435 124.34850  75.68928
      20 121.56429  74.87861         10.28976   6.481150 124.34850  75.68928 118.75945  75.05435 118.78007  74.06795 124.36912  74.70288
      20 121.58491  73.89183         10.29767   6.481150 124.36912  74.70288 118.78007  74.06795 118.80069  73.08079 124.38975  73.71572
      20 121.60554  72.90429         10.30560   6.481150 124.38975  73.71572 118.80069  73.08079 118.82134  72.09287 124.41039  72.72780
      20 121.62619  71.91599         10.31353   6.481150 124.41039  72.72780 118.82134  72.09287 118.84200  71.10419 124.43105  71.73912
      20 121.64686  70.92693         10.32146   6.481150 124.43105  71.73912 118.84200  71.10419 118.86267  70.11475 124.45172  70.74968
      20 121.66755  69.93711         10.32941   6.481150 124.45172  70.74968 118.86267  70.11475 118.88337  69.12455 124.47242  69.75948
      20 121.68824  68.94653         10.33736   6.481150 124.47242  69.75948 118.88337  69.12455 118.90407  68.13358 124.49312  68.76851
      20 121.70896  67.95518         10.34531   6.481150 124.49312  68.76851 118.90407  68.13358 118.92480  67.14186 124.51385  67.77679
      20 121.72969  66.96308         10.35327   6.481150 124.51385  67.77679 118.92480  67.14186 118.94554  66.14937 124.53459  66.78430
      20 121.75044  65.97020         10.36124   6.481150 124.53459  66.78430 118.94554  66.14937 118.96629  65.15611 124.55534  65.79104
      20 121.77120  64.97657         10.36921   6.481150 124.55534  65.79104 118.96629  65.15611 118.98706  64.16209 124.57611  64.79702
      20 121.79198  63.98217         10.37719   6.481150 124.57611  64.79702 118.98706  64.16209 119.00785  63.16731 124.59690  63.80224
      20 121.81278  62.98700         10.38518   6.481150 124.59690  63.80224 119.00785  63.16731 119.02865  62.17176 124.61771  62.80669
      20 121.83359  61.99107         10.39317   6.481150 124.61771  62.80669 119.02865  62.17176 119.04947  61.17545 124.63852  61.81038
      20 121.85442  60.99437         10.40117   6.481150 124.63852  61.81038 119.04947  61.17545 119.07031  60.17837 124.65936  60.81330
      20 121.87526  59.99691         10.40917   6.481150 124.65936  60.81330 119.07031  60.17837 119.09116  59.18052 124.68021  59.81545
      20 121.89612  58.99868         10.41718   6.481150 124.68021  59.81545 119.09116  59.18052 119.11203  58.18190 124.70108  58.81683
      20 121.91700  57.99968         10.42520   6.481150 124.70108  58.81683 119.11203  58.18190 119.13291  57.18252 124.72196  57.81745
      20 121.93789  56.99991         10.43322   6.481150 124.72196  57.81745 119.13291  57.18252 119.15381  56.18236 124.74286  56.81729
      20 121.95879  55.99937         10.44125   6.481150 124.74286  56.81729 119.15381  56.18236 119.17473  55.18144 124.76378  55.81637
      20 121.97972  54.99806         10.44928   6.481150 124.76378  55.81637 119.17473  55.18144 119.19566  54.17975 124.78471  54.81468
      20 122.00066  53.99598         10.45732   6.481150 124.78471  54.81468 119.19566  54.17975 119.21661  53.17728 124.80566  53.81221
      20 122.02161  52.99313         10.46537   6.481150 124.80566  53.81221 119.21661  53.17728 119.23757  52.17405 124.82662  52.80898
      20 122.04259  51.98951         10.47342   6.481150 124.82662  52.80898 119.23757  52.17405 119.25855  51.17004 124.84760  51.80497
      20 122.06358  50.98511         10.48148   6.481150 124.84760  51.80497 119.25855  51.17004 119.27955  50.16526 124.86860  50.80019
      20 122.08458  49.97995         10.48955   6.481150 124.86860  50.80019 119.27955  50.16526 119.30056  49.15970 124.88961  49.79463
      20 122.10560  48.97401         10.49762   6.481150 124.88961  49.79463 119.30056  49.15970 119.32159  48.15338 124.91064  48.78831
      20 122.12664  47.96729         10.50570   6.481150 124.91064  48.78831 119.32159  48.15338 119.34263  47.14627 124.93168  47.78120
      20 122.14769  46.95980         10.51378   6.481150 124.93168  47.78120 119.34263  47.14627 119.36370  46.13840 124.95275  46.77333
      20 122.16876  45.95154         10.52188   6.481150 124.95275  46.77333 119.36370  46.13840 119.38477  45.12975 124.97382  45.76467
      20 122.18984  44.94250         10.52997   6.481150 124.97382  45.76467 119.38477  45.12975 119.40587  44.12032 124.99492  44.75525
      20 122.21095  43.93268         10.53808   6.481150 124.99492  44.75525 119.40587  44.12032 119.42698  43.11011 125.01603  43.74504
      20 122.23206  42.92208         10.54618   6.481150 125.01603  43.74504 119.42698  43.11011 119.44810  42.09913 125.03715  42.73406
      20 122.25320  41.91071         10.55430   6.481150 125.03715  42.73406 119.44810  42.09913 119.46924  41.08737 125.05829  41.72230
      20 122.27435  40.89856         10.56242   6.481150 125.05829  41.72230 119.46924  41.08737 119.49040  40.07483 125.07945  40.70976
      20 122.29552  39.88563         10.57055   6.481150 125.07945  40.70976 119.49040  40.07483 119.51158  39.06151 125.10063  39.69644
      20 122.31670  38.87192         10.57868   6.481150 125.10063  39.69644 119.51158  39.06151 119.53277  38.04741 125.12182  38.68234
      20 122.33790  37.85744         10.58683   6.481150 125.12182  38.68234 119.53277  38.04741 119.55398  37.03253 125.14303  37.66746
      20 122.35911  36.84217         10.59497   6.481150 125.14303  37.66746 119.55398  37.03253 119.57520  36.01687 125.16425  36.65180
      20 122.38034  35.82612         10.60313   6.481150 125.16425  36.65180 119.57520  36.01687 119.59644  35.00043 125.18549  35.63536
      20 122.40159  34.80928         10.61128   6.481150 125.18549  35.63536 119.59644  35.00043 119.61770  33.98321 125.20675  34.61814
      20 122.42286  33.79167         10.61945   6.481150 125.20675  34.61814 119.61770  33.98321 119.63897  32.96520 125.22802  33.60013
      20 122.44414  32.77327         10.62762   6.481150 125.22802  33.60013 119.63897  32.96520 119.66026  31.94641 125.24931  32.58134
      20 122.46544  31.75409         10.63580   6.481150 125.24931  32.58134 119.66026  31.94641 119.68156  30.92684 125.27061  31.56177
      20 122.48675  30.73412         10.64398   6.481150 125.27061  31.56177 119.68156  30.92684 119.70288  29.90648 125.29194  30.54141
      20 122.50808  29.71337         10.65218   6.481150 125.29194  30.54141 119.70288  29.90648 119.72422  28.88534 125.31327  29.52026
      20 122.52943  28.69184         10.66037   6.481150 125.31327  29.52026 119.72422  28.88534 119.74558  27.86341 125.33463  28.49834
      20 122.55079  27.66951         10.66858   6.481150 125.33463  28.49834 119.74558  27.86341 119.76695  26.84069 125.35600  27.47562
      20 122.57217  26.64640         10.67679   6.481150 125.35600  27.47562 119.76695  26.84069 119.78834  25.81719 125.37739  26.45212
      20 122.59356  25.62251         10.68500   6.481150 125.37739  26.45212 119.78834  25.81719 119.80974  24.79290 125.39879  25.42783
      20 122.61498  24.59782         10.69322   6.481150 125.39879  25.42783 119.80974  24.79290 119.83116  23.76782 125.42021  24.40275
      20 122.63641  23.57235         10.70145   6.481150 125.42021  24.40275 119.83116  23.76782 119.85260  22.74195 125.44165  23.37688
      19 113.49966 127.78601         10.37719   6.669800 116.28591 128.58266 110.69898 127.92934 110.71341 126.98936 116.30034 127.64269
      19 113.51409 126.84568         10.38518   6.669800 116.30034 127.64269 110.71341 126.98936 110.72784 126.04866 116.31477 126.70199
      19 113.52853 125.90462         10.39317   6.669800 116.31477 126.70199 110.72784 126.04866 110.74229 125.10724 116.32922 125.76057
      19 113.54299 124.96283         10.40117   6.669800 116.32922 125.76057 110.74229 125.10724 110.75675 124.16510 116.34368 124.81842
      19 113.55745 124.02032         10.40917   6.669800 116.34368 124.81842 110.75675 124.16510 110.77122 123.22223 116.35815 123.87555
      19 113.57193 123.07709         10.41718   6.669800 116.35815 123.87555 110.77122 123.22223 110.78570 122.27863 116.37263 122.93196
      19 113.58642 122.13313         10.42520   6.669800 116.37263 122.93196 110.78570 122.27863 110.80020 121.33431 116.38713 121.98763
      19 113.60091 121.18845         10.43322   6.669800 116.38713 121.98763 110.80020 121.33431 110.81470 120.38926 116.40163 121.04259
      19 113.61542 120.24303         10.44125   6.669800 116.40163 121.04259 110.81470 120.38926 110.82922 119.44348 116.41615 120.09681
      19 113.62994 119.29689         10.44928   6.669800 116.41615 120.09681 110.82922 119.44348 110.84374 118.49698 116.43067 119.15030
      19 113.64448 118.35002         10.45732   6.669800 116.43067 119.15030 110.84374 118.49698 110.85828 117.54974 116.44521 118.20307
      19 113.65902 117.40243         10.46537   6.669800 116.44521 118.20307 110.85828 117.54974 110.87283 116.60178 116.45976 117.25511
      19 113.67357 116.45410         10.47342   6.669800 116.45976 117.25511 110.87283 116.60178 110.88739 115.65309 116.47432 116.30642
      19 113.68814 115.50505         10.48148   6.669800 116.47432 116.30642 110.88739 115.65309 110.90196 114.70367 116.48889 115.35700
      19 113.70272 114.55526         10.48955   6.669800 116.48889 115.35700 110.90196 114.70367 110.91654 113.75352 116.50347 114.40685
      19 113.71730 113.60474         10.49762   6.669800 116.50347 114.40685 110.91654 113.75352 110.93114 112.80264 116.51807 113.45596
      19 113.73190 112.65349         10.50570   6.669800 116.51807 113.45596 110.93114 112.80264 110.94574 111.85102 116.53267 112.50435
      19 113.74651 111.70151         10.51378   6.669800 116.53267 112.50435 110.94574 111.85102 110.96036 110.89867 116.54729 111.55200
      19 113.76113 110.74880         10.52188   6.669800 116.54729 111.55200 110.96036 110.89867 110.97498 109.94560 116.56191 110.59892
      19 113.77577 109.79535         10.52997   6.669800 116.56191 110.59892 110.97498 109.94560 110.98962 108.99178 116.57655 109.64511
      19 113.79041 108.84117         10.53808   6.669800 116.57655 109.64511 110.98962 108.99178 111.00427 108.03723 116.59120 108.69056
      19 113.80507 107.88626         10.54618   6.669800 116.59120 108.69056 111.00427 108.03723 111.01893 107.08195 116.60586 107.73528
      19 113.81973 106.93061         10.55430   6.669800 116.60586 107.73528 111.01893 107.08195 111.03360 106.12594 116.62053 106.77926
      19 113.83441 105.97422         10.56242   6.669800 116.62053 106.77926 111.03360 106.12594 111.04829 105.16918 116.63522 105.82251
      19 113.84910 105.01710         10.57055   6.669800 116.63522 105.82251 111.04829 105.16918 111.06298 104.21170 116.64991 104.86502
      19 113.86380 104.05925         10.57868   6.669800 116.64991 104.86502 111.06298 104.21170 111.07769 103.25347 116.66462 103.90680
      19 113.87851 103.10065         10.58683   6.669800 116.66462 103.90680 111.07769 103.25347 111.09241 102.29451 116.67934 102.94784
      19 113.89324 102.14132         10.59497   6.669800 116.67934 102.94784 111.09241 102.29451 111.10714 101.33481 116.69407 101.98813
      19 113.90797 101.18125         10.60313   6.669800 116.69407 101.98813 111.10714 101.33481 111.12188 100.37437 116.70881 101.02769
      19 113.92272 100.22044         10.61128   6.669800 116.70881 101.02769 111.12188 100.37437 111.13663  99.41319 116.72356 100.06652
      19 113.93747  99.25889         10.61945   6.669800 116.72356 100.06652 111.13663  99.41319 111.15139  98.45127 116.73832  99.10460
      19 113.95224  98.29661         10.62762   6.669800 116.73832  99.10460 111.15139  98.45127 111.16616  97.48861 116.75309  98.14194
      19 113.96702  97.33358         10.63580   6.669800 116.75309  98.14194 111.16616  97.48861 111.18095  96.52521 116.76788  97.17854
      19 113.98181  96.36981         10.64398   6.669800 116.76788  97.17854 111.18095  96.52521 111.19575  95.56107 116.78268  96.21440
      19 113.99662  95.40530         10.65218   6.669800 116.78268  96.21440 111.19575  95.56107 111.21055  94.59619 116.79748  95.24952
      19 114.01143  94.44004         10.66037   6.669800 116.79748  95.24952 111.21055  94.59619 111.22537  93.63057 116.81230  94.28389
      19 114.02625  93.47405         10.66858   6.669800 116.81230  94.28389 111.22537  93.63057 111.24021  92.66420 116.82714  93.31753
      19 114.04109  92.50731         10.67679   6.669800 116.82714  93.31753 111.24021  92.66420 111.25505  91.69709 116.84198  92.35041
      19 114.05594  91.53982         10.68500   6.669800 116.84198  92.35041 111.25505  91.69709 111.26990  90.72923 116.85683  91.38256
      19 114.07080  90.57159         10.69322   6.669800 116.85683  91.38256 111.26990  90.72923 111.28477  89.76063 116.87170  90.41396
      19 114.08567  89.60262         10.70145   6.669800 116.87170  90.41396 111.28477  89.76063 111.29964  88.79128 116.88657  89.44461
      19 114.10055  88.63290         10.70969   6.669800 116.88657  89.44461 111.29964  88.79128 111.31453  87.82119 116.90146  88.47452
      19 114.11545  87.66244         10.71793   6.669800 116.90146  88.47452 111.31453  87.82119 111.32943  86.85035 116.91636  87.50368
      19 114.13035  86.69122         10.72618   6.669800 116.91636  87.50368 111.32943  86.85035 111.34434  85.87877 116.93127  86.53210
      19 114.14527  85.71926         10.73443   6.669800 116.93127  86.53210 111.34434  85.87877 111.35927  84.90643 116.94620  85.55976
      19 114.16020  84.74656         10.74269   6.669800 116.94620  85.55976 111.35927  84.90643 111.37420  83.93335 116.96113  84.58668
      19 114.17514  83.77310         10.75096   6.669800 116.96113  84.58668 111.37420  83.93335 111.38915  82.95952 116.97608  83.61285
      19 114.19009  82.79890         10.75923   6.669800 116.97608  83.61285 111.38915  82.95952 111.40410  81.98494 116.99103  82.63827
      19 114.20505  81.82394         10.76751   6.669800 116.99103  82.63827 111.40410  81.98494 111.41907  81.00961 117.00600  81.66294
      19 114.22003  80.84824         10.77580   6.669800 117.00600  81.66294 111.41907  81.00961 111.43405  80.03353 117.02098  80.68686
      19 114.23501  79.87178         10.78409   6.669800 117.02098  80.68686 111.43405  80.03353 111.44904  79.05670 117.03597  79.71003
      19 114.25001  78.89457         10.79239   6.669800 117.03597  79.71003 111.44904  79.05670 111.46405  78.07912 117.05098  78.73245
      19 114.26502  77.91662         10.80069   6.669800 117.05098  78.73245 111.46405  78.07912 111.47906  77.10078 117.06599  77.75411
      19 114.28004  76.93790         10.80900   6.669800 117.06599  77.75411 111.47906  77.10078 111.49409  76.12170 117.08102  76.77502
      19 114.29507  75.95844         10.81732   6.669800 117.08102  76.77502 111.49409  76.12170 111.50913  75.14185 117.09606  75.79518
      19 114.31012  74.97822         10.82565   6.669800 117.09606  75.79518 111.50913  75.14185 111.52418  74.16126 117.11111  74.81459
      19 114.32517  73.99725         10.83398   6.669800 117.11111  74.81459 111.52418  74.16126 111.53924  73.17991 117.12617  73.83324
      19 114.34024  73.01552         10.84231   6.669800 117.12617  73.83324 111.53924  73.17991 111.55431  72.19780 117.14124  72.85113
      19 114.35532  72.03304         10.85066   6.669800 117.14124  72.85113 111.55431  72.19780 111.56939  71.21494 117.15632  71.86827
      19 114.37041  71.04980         10.85901   6.669800 117.15632  71.86827 111.56939  71.21494 111.58449  70.23132 117.17142  70.88465
      19 114.38551  70.06580         10.86736   6.669800 117.17142  70.88465 111.58449  70.23132 111.59960  69.24695 117.18653  69.90028
      19 114.40062  69.08105         10.87573   6.669800 117.18653  69.90028 111.59960  69.24695 111.61472  68.26182 117.20165  68.91515
      19 114.41575  68.09554         10.88410   6.669800 117.20165  68.91515 111.61472  68.26182 111.62985  67.27593 117.21678  67.92926
      19 114.43088  67.10927         10.89247   6.669800 117.21678  67.92926 111.62985  67.27593 111.64499  66.28928 117.23192  66.94261
      19 114.44603  66.12224         10.90085   6.669800 117.23192  66.94261 111.64499  66.28928 111.66014  65.30187 117.24707  65.95520
      19 114.46119  65.13445         10.90924   6.669800 117.24707  65.95520 111.66014  65.30187 111.67531  64.31370 117.26224  64.96703
      19 114.47636  64.14590         10.91764   6.669800 117.26224  64.96703 111.67531  64.31370 111.69049  63.32478 117.27742  63.97810
      19 114.49155  63.15660         10.92604   6.669800 117.27742  63.97810 111.69049  63.32478 111.70567  62.33509 117.29260  62.98842
      19 114.50674  62.16653         10.93445   6.669800 117.29260  62.98842 111.70567  62.33509 111.72088  61.34464 117.30781  61.99796
      19 114.52195  61.17569         10.94286   6.669800 117.30781  61.99796 111.72088  61.34464 111.73609  60.35342 117.32302  61.00675
      19 114.53717  60.18410         10.95128   6.669800 117.32302  61.00675 111.73609  60.35342 111.75131  59.36145 117.33824  60.01478
      19 114.55240  59.19174         10.95971   6.669800 117.33824  60.01478 111.75131  59.36145 111.76655  58.36871 117.35348  59.02204
      19 114.56764  58.19862         10.96814   6.669800 117.35348  59.02204 111.76655  58.36871 111.78180  57.37521 117.36873  58.02853
      19 114.58289  57.20474         10.97658   6.669800 117.36873  58.02853 111.78180  57.37521 111.79705  56.38094 117.38398  57.03427
      19 114.59816  56.21009         10.98503   6.669800 117.38398  57.03427 111.79705  56.38094 111.81233  55.38591 117.39926  56.03923
      19 114.61343  55.21467         10.99348   6.669800 117.39926  56.03923 111.81233  55.38591 111.82761  54.39011 117.41454  55.04344
      19 114.62872  54.21849         11.00194   6.669800 117.41454  55.04344 111.82761  54.39011 111.84290  53.39354 117.42983  54.04687
      19 114.64402  53.22154         11.01041   6.669800 117.42983  54.04687 111.84290  53.39354 111.85821  52.39621 117.44514  53.04954
      19 114.65933  52.22383         11.01888   6.669800 117.44514  53.04954 111.85821  52.39621 111.87353  51.39811 117.46046  52.05144
      19 114.67466  51.22534         11.02736   6.669800 117.46046  52.05144 111.87353  51.39811 111.88886  50.39925 117.47579  51.05257
      19 114.68999  50.22609         11.03585   6.669800 117.47579  51.05257 111.88886  50.39925 111.90420  49.39961 117.49113  50.05294
      19 114.70534  49.22607         11.04434   6.669800 117.49113  50.05294 111.90420  49.39961 111.91955  48.39921 117.50648  49.05253
      19 114.72070  48.22528         11.05284   6.669800 117.50648  49.05253 111.91955  48.39921 111.93492  47.39803 117.52185  48.05136
      19 114.73607  47.22372         11.06134   6.669800 117.52185  48.05136 111.93492  47.39803 111.95030  46.39609 117.53723  47.04941
      19 114.75145  46.22139         11.06986   6.669800 117.53723  47.04941 111.95030  46.39609 111.96568  45.39337 117.55261  46.04670
      19 114.76685  45.21829         11.07837   6.669800 117.55261  46.04670 111.96568  45.39337 111.98108  44.38988 117.56801  45.04321
      19 114.78226  44.21442         11.08690   6.669800 117.56801  45.04321 111.98108  44.38988 111.99650  43.38562 117.58343  44.03895
      19 114.79767  43.20977         11.09543   6.669800 117.58343  44.03895 111.99650  43.38562 112.01192  42.38059 117.59885  43.03392
      19 114.81311  42.20435         11.10397   6.669800 117.59885  43.03392 112.01192  42.38059 112.02736  41.37478 117.61429  42.02811
      19 114.82855  41.19816         11.11251   6.669800 117.61429  42.02811 112.02736  41.37478 112.04281  40.36820 117.62974  41.02153
      19 114.84400  40.19119         11.12107   6.669800 117.62974  41.02153 112.04281  40.36820 112.05827  39.36085 117.64520  40.01418
      19 114.85947  39.18345         11.12962   6.669800 117.64520  40.01418 112.05827  39.36085 112.07374  38.35272 117.66067  39.00605
      19 114.87495  38.17493         11.13819   6.669800 117.66067  39.00605 112.07374  38.35272 112.08922  37.34381 117.67615  37.99714
      19 114.89044  37.16564         11.14676   6.669800 117.67615  37.99714 112.08922  37.34381 112.10472  36.33413 117.69165  36.98746
      19 114.90594  36.15556         11.15534   6.669800 117.69165  36.98746 112.10472  36.33413 112.12023  35.32367 117.70716  35.97700
      19 114.92145  35.14472         11.16392   6.669800 117.70716  35.97700 112.12023  35.32367 112.13575  34.31243 117.72268  34.96576
      19 114.93698  34.13309         11.17251   6.669800 117.72268  34.96576 112.13575  34.31243 112.15128  33.30042 117.73821  33.95375
      19 114.95251  33.12069         11.18111   6.669800 117.73821  33.95375 112.15128  33.30042 112.16682  32.28763 117.75375  32.94095
      19 114.96806  32.10750         11.18971   6.669800 117.75375  32.94095 112.16682  32.28763 112.18238  31.27405 117.76931  31.92738
      19 114.98363  31.09354         11.19832   6.669800 117.76931  31.92738 112.18238  31.27405 112.19794  30.25970 117.78487  30.91303
      19 114.99920  30.07880         11.20694   6.669800 117.78487  30.91303 112.19794  30.25970 112.21352  29.24457 117.80045  29.89789
      19 115.01479  29.06327         11.21557   6.669800 117.80045  29.89789 112.21352  29.24457 112.22912  28.22865 117.81605  28.88198
      19 115.03038  28.04697         11.22420   6.669800 117.81605  28.88198 112.22912  28.22865 112.24472  27.21196 117.83165  27.86528
      19 115.04599  27.02988         11.23283   6.669800 117.83165  27.86528 112.24472  27.21196 112.26033  26.19448 117.84726  26.84780
      19 115.06161  26.01201         11.24148   6.669800 117.84726  26.84780 112.26033  26.19448 112.27596  25.17621 117.86289  25.82954
      19 115.07725  24.99336         11.25013   6.669800 117.86289  25.82954 112.27596  25.17621 112.29160  24.15717 117.87853  24.81050
      19 115.09289  23.97392         11.25879   6.669800 117.87853  24.81050 112.29160  24.15717 112.30725  23.13734 117.89418  23.79067
      19 115.10855  22.95370         11.26745   6.669800 117.89418  23.79067 112.30725  23.13734 112.32292  22.11673 117.90985  22.77005
      19 115.12422  21.93269         11.27612   6.669800 117.90985  22.77005 112.32292  22.11673 112.33859  21.09533 117.92552  21.74865
      19 115.13990  20.91090         11.28480   6.669800 117.92552  21.74865 112.33859  21.09533 112.35428  20.07314 117.94121  20.72647
      19 115.15560  19.88832         11.29348   6.669800 117.94121  20.72647 112.35428  20.07314 112.36998  19.05017 117.95691  19.70350
      18 105.67018 127.37103         10.95128   6.940260 108.45718 128.18222 102.87340 127.50253 102.88318 126.55985 108.46696 127.23954
      18 105.67996 126.42799         10.95971   6.940260 108.46696 127.23954 102.88318 126.55985 102.89296 125.61644 108.47675 126.29613
      18 105.68975 125.48422         10.96814   6.940260 108.47675 126.29613 102.89296 125.61644 102.90276 124.67231 108.48654 125.35200
      18 105.69955 124.53973         10.97658   6.940260 108.48654 125.35200 102.90276 124.67231 102.91256 123.72745 108.49634 124.40714
      18 105.70935 123.59450         10.98503   6.940260 108.49634 124.40714 102.91256 123.72745 102.92236 122.78186 108.50615 123.46156
      18 105.71916 122.64855         10.99348   6.940260 108.50615 123.46156 102.92236 122.78186 102.93218 121.83555 108.51596 122.51524
      18 105.72898 121.70188         11.00194   6.940260 108.51596 122.51524 102.93218 121.83555 102.94200 120.88851 108.52579 121.56820
      18 105.73881 120.75447         11.01041   6.940260 108.52579 121.56820 102.94200 120.88851 102.95183 119.94074 108.53562 120.62043
      18 105.74864 119.80633         11.01888   6.940260 108.53562 120.62043 102.95183 119.94074 102.96167 118.99224 108.54545 119.67193
      18 105.75848 118.85747         11.02736   6.940260 108.54545 119.67193 102.96167 118.99224 102.97151 118.04301 108.55530 118.72270
      18 105.76833 117.90787         11.03585   6.940260 108.55530 118.72270 102.97151 118.04301 102.98137 117.09305 108.56515 117.77274
      18 105.77819 116.95755         11.04434   6.940260 108.56515 117.77274 102.98137 117.09305 102.99123 116.14236 108.57501 116.82205
      18 105.78805 116.00649         11.05284   6.940260 108.57501 116.82205 102.99123 116.14236 103.00110 115.19093 108.58488 115.87063
      18 105.79793 115.05470         11.06134   6.940260 108.58488 115.87063 103.00110 115.19093 103.01097 114.23878 108.59476 114.91847
      18 105.80781 114.10218         11.06986   6.940260 108.59476 114.91847 103.01097 114.23878 103.02086 113.28589 108.60464 113.96558
      18 105.81769 113.14893         11.07837   6.940260 108.60464 113.96558 103.02086 113.28589 103.03075 112.33227 108.61453 113.01196
      18 105.82759 112.19494         11.08690   6.940260 108.61453 113.01196 103.03075 112.33227 103.04064 111.37791 108.62443 112.05761
      18 105.83749 111.24022         11.09543   6.940260 108.62443 112.05761 103.04064 111.37791 103.05055 110.42283 108.63433 111.10252
      18 105.84740 110.28476         11.10397   6.940260 108.63433 111.10252 103.05055 110.42283 103.06046 109.46700 108.64425 110.14669
      18 105.85732 109.32857         11.11251   6.940260 108.64425 110.14669 103.06046 109.46700 103.07039 108.51044 108.65417 109.19013
      18 105.86724 108.37164         11.12107   6.940260 108.65417 109.19013 103.07039 108.51044 103.08032 107.55315 108.66410 108.23284
      18 105.87718 107.41398         11.12962   6.940260 108.66410 108.23284 103.08032 107.55315 103.09025 106.59511 108.67404 107.27481
      18 105.88712 106.45557         11.13819   6.940260 108.67404 107.27481 103.09025 106.59511 103.10020 105.63634 108.68398 106.31604
      18 105.89706 105.49644         11.14676   6.940260 108.68398 106.31604 103.10020 105.63634 103.11015 104.67684 108.69393 105.35653
      18 105.90702 104.53656         11.15534   6.940260 108.69393 105.35653 103.11015 104.67684 103.12011 103.71659 108.70389 104.39628
      18 105.91698 103.57594         11.16392   6.940260 108.70389 104.39628 103.12011 103.71659 103.13008 102.75560 108.71386 103.43530
      18 105.92695 102.61459         11.17251   6.940260 108.71386 103.43530 103.13008 102.75560 103.14005 101.79388 108.72383 102.47357
      18 105.93693 101.65249         11.18111   6.940260 108.72383 102.47357 103.14005 101.79388 103.15003 100.83142 108.73382 101.51111
      18 105.94692 100.68966         11.18971   6.940260 108.73382 101.51111 103.15003 100.83142 103.16002  99.86821 108.74381 100.54790
      18 105.95691  99.72608         11.19832   6.940260 108.74381 100.54790 103.16002  99.86821 103.17002  98.90426 108.75380  99.58396
      18 105.96692  98.76177         11.20694   6.940260 108.75380  99.58396 103.17002  98.90426 103.18003  97.93958 108.76381  98.61927
      18 105.97693  97.79671         11.21557   6.940260 108.76381  98.61927 103.18003  97.93958 103.19004  96.97415 108.77382  97.65384
      18 105.98694  96.83091         11.22420   6.940260 108.77382  97.65384 103.19004  96.97415 103.20006  96.00797 108.78385  96.68767
      18 105.99697  95.86436         11.23283   6.940260 108.78385  96.68767 103.20006  96.00797 103.21009  95.04106 108.79387  95.72075
      18 106.00700  94.89707         11.24148   6.940260 108.79387  95.72075 103.21009  95.04106 103.22013  94.07339 108.80391  94.75309
      18 106.01704  93.92904         11.25013   6.940260 108.80391  94.75309 103.22013  94.07339 103.23017  93.10499 108.81395  93.78468
      18 106.02709  92.96026         11.25879   6.940260 108.81395  93.78468 103.23017  93.10499 103.24022  92.13584 108.82401  92.81553
      18 106.03714  91.99074         11.26745   6.940260 108.82401  92.81553 103.24022  92.13584 103.25028  91.16594 108.83407  91.84563
      18 106.04721  91.02047         11.27612   6.940260 108.83407  91.84563 103.25028  91.16594 103.26035  90.19530 108.84413  90.87499
      18 106.05728  90.04945         11.28480   6.940260 108.84413  90.87499 103.26035  90.19530 103.27043  89.22391 108.85421  89.90360
      18 106.06736  89.07769         11.29348   6.940260 108.85421  89.90360 103.27043  89.22391 103.28051  88.25177 108.86429  88.93146
      18 106.07745  88.10518         11.30217   6.940260 108.86429  88.93146 103.28051  88.25177 103.29060  87.27889 108.87438  87.95858
      18 106.08754  87.13192         11.31087   6.940260 108.87438  87.95858 103.29060  87.27889 103.30070  86.30525 108.88448  86.98495
      18 106.09764  86.15791         11.31957   6.940260 108.88448  86.98495 103.30070  86.30525 103.31080  85.33087 108.89459  86.01056
      18 106.10775  85.18315         11.32828   6.940260 108.89459  86.01056 103.31080  85.33087 103.32092  84.35574 108.90470  85.03543
      18 106.11787  84.20764         11.33700   6.940260 108.90470  85.03543 103.32092  84.35574 103.33104  83.37985 108.91482  84.05954
      18 106.12800  83.23138         11.34573   6.940260 108.91482  84.05954 103.33104  83.37985 103.34117  82.40322 108.92495  83.08291
      18 106.13813  82.25437         11.35446   6.940260 108.92495  83.08291 103.34117  82.40322 103.35131  81.42583 108.93509  82.10552
      18 106.14827  81.27661         11.36319   6.940260 108.93509  82.10552 103.35131  81.42583 103.36145  80.44769 108.94524  81.12739
      18 106.15842  80.29809         11.37194   6.940260 108.94524  81.12739 103.36145  80.44769 103.37160  79.46880 108.95539  80.14850
      18 106.16858  79.31883         11.38069   6.940260 108.95539  80.14850 103.37160  79.46880 103.38177  78.48916 108.96555  79.16885
      18 106.17874  78.33881         11.38945   6.940260 108.96555  79.16885 103.38177  78.48916 103.39193  77.50876 108.97572  78.18845
      18 106.18891  77.35803         11.39821   6.940260 108.97572  78.18845 103.39193  77.50876 103.40211  76.52761 108.98589  77.20730
      18 106.19909  76.37650         11.40698   6.940260 108.98589  77.20730 103.40211  76.52761 103.41230  75.54570 108.99608  76.22539
      18 106.20928  75.39421         11.41576   6.940260 108.99608  76.22539 103.41230  75.54570 103.42249  74.56304 109.00627  75.24273
      18 106.21948  74.41117         11.42455   6.940260 109.00627  75.24273 103.42249  74.56304 103.43269  73.57962 109.01647  74.25931
      18 106.22968  73.42738         11.43334   6.940260 109.01647  74.25931 103.43269  73.57962 103.44289  72.59544 109.02668  73.27513
      18 106.23989  72.44282         11.44214   6.940260 109.02668  73.27513 103.44289  72.59544 103.45311  71.61051 109.03689  72.29020
      18 106.25011  71.45751         11.45094   6.940260 109.03689  72.29020 103.45311  71.61051 103.46333  70.62482 109.04712  71.30451
      18 106.26034  70.47144         11.45975   6.940260 109.04712  71.30451 103.46333  70.62482 103.47357  69.63837 109.05735  70.31806
      18 106.27058  69.48461         11.46857   6.940260 109.05735  70.31806 103.47357  69.63837 103.48380  68.65116 109.06759  69.33085
      18 106.28082  68.49702         11.47740   6.940260 109.06759  69.33085 103.48380  68.65116 103.49405  67.66319 109.07784  68.34288
      18 106.29107  67.50867         11.48623   6.940260 109.07784  68.34288 103.49405  67.66319 103.50431  66.67446 109.08809  67.35415
      18 106.30133  66.51956         11.49507   6.940260 109.08809  67.35415 103.50431  66.67446 103.51457  65.68497 109.09835  66.36466
      18 106.31160  65.52969         11.50391   6.940260 109.09835  66.36466 103.51457  65.68497 103.52484  64.69472 109.10862  65.37441
      18 106.32187  64.53906         11.51277   6.940260 109.10862  65.37441 103.52484  64.69472 103.53512  63.70371 109.11890  64.38340
      18 106.33215  63.54766         11.52162   6.940260 109.11890  64.38340 103.53512  63.70371 103.54541  62.71193 109.12919  63.39162
      18 106.34245  62.55551         11.53049   6.940260 109.12919  63.39162 103.54541  62.71193 103.55570  61.71939 109.13948  62.39908
      18 106.35274  61.56259         11.53936   6.940260 109.13948  62.39908 103.55570  61.71939 103.56600  60.72609 109.14979  61.40578
      18 106.36305  60.56890         11.54824   6.940260 109.14979  61.40578 103.56600  60.72609 103.57631  59.73202 109.16010  60.41171
      18 106.37336  59.57445         11.55713   6.940260 109.16010  60.41171 103.57631  59.73202 103.58663  58.73719 109.17042  59.41688
      18 106.38369  58.57924         11.56602   6.940260 109.17042  59.41688 103.58663  58.73719 103.59696  57.74159 109.18074  58.42128
      18 106.39402  57.58325         11.57492   6.940260 109.18074  58.42128 103.59696  57.74159 103.60729  56.74523 109.19108  57.42492
      18 106.40436  56.58651         11.58383   6.940260 109.19108  57.42492 103.60729  56.74523 103.61763  55.74810 109.20142  56.42779
      18 106.41470  55.58899         11.59275   6.940260 109.20142  56.42779 103.61763  55.74810 103.62799  54.75020 109.21177  55.42989
      18 106.42506  54.59071         11.60167   6.940260 109.21177  55.42989 103.62799  54.75020 103.63834  53.75153 109.22213  54.43123
      18 106.43542  53.59166         11.61059   6.940260 109.22213  54.43123 103.63834  53.75153 103.64871  52.75210 109.23249  53.43179
      18 106.44579  52.59184         11.61953   6.940260 109.23249  53.43179 103.64871  52.75210 103.65908  51.75189 109.24287  52.43159
      18 106.45617  51.59125         11.62847   6.940260 109.24287  52.43159 103.65908  51.75189 103.66947  50.75092 109.25325  51.43061
      18 106.46655  50.58990         11.63742   6.940260 109.25325  51.43061 103.66947  50.75092 103.67986  49.74918 109.26364  50.42887
      18 106.47695  49.58777         11.64637   6.940260 109.26364  50.42887 103.67986  49.74918 103.69025  48.74666 109.27404  49.42636
      18 106.48735  48.58487         11.65534   6.940260 109.27404  49.42636 103.69025  48.74666 103.70066  47.74338 109.28444  48.42307
      18 106.49776  47.58120         11.66431   6.940260 109.28444  48.42307 103.70066  47.74338 103.71107  46.73932 109.29486  47.41901
      18 106.50818  46.57675         11.67328   6.940260 109.29486  47.41901 103.71107  46.73932 103.72150  45.73449 109.30528  46.41418
      18 106.51860  45.57153         11.68226   6.940260 109.30528  46.41418 103.72150  45.73449 103.73193  44.72889 109.31571  45.40858
      18 106.52904  44.56554         11.69125   6.940260 109.31571  45.40858 103.73193  44.72889 103.74236  43.72251 109.32615  44.40220
      18 106.53948  43.55878         11.70025   6.940260 109.32615  44.40220 103.74236  43.72251 103.75281  42.71536 109.33659  43.39505
      18 106.54993  42.55124         11.70925   6.940260 109.33659  43.39505 103.75281  42.71536 103.76326  41.70743 109.34705  42.38712
      18 106.56039  41.54292         11.71827   6.940260 109.34705  42.38712 103.76326  41.70743 103.77373  40.69873 109.35751  41.37842
      18 106.57085  40.53383         11.72728   6.940260 109.35751  41.37842 103.77373  40.69873 103.78420  39.68925 109.36798  40.36894
      18 106.58133  39.52397         11.73631   6.940260 109.36798  40.36894 103.78420  39.68925 103.79467  38.67899 109.37846  39.35869
      18 106.59181  38.51332         11.74534   6.940260 109.37846  39.35869 103.79467  38.67899 103.80516  37.66796 109.38895  38.34765
      18 106.60230  37.50190         11.75438   6.940260 109.38895  38.34765 103.80516  37.66796 103.81566  36.65615 109.39944  37.33584
      18 106.61280  36.48970         11.76342   6.940260 109.39944  37.33584 103.81566  36.65615 103.82616  35.64356 109.40994  36.32325
      18 106.62331  35.47672         11.77247   6.940260 109.40994  36.32325 103.82616  35.64356 103.83667  34.63019 109.42045  35.30988
      18 106.63382  34.46296         11.78153   6.940260 109.42045  35.30988 103.83667  34.63019 103.84719  33.61604 109.43097  34.29573
      18 106.64434  33.44842         11.79060   6.940260 109.43097  34.29573 103.84719  33.61604 103.85771  32.60111 109.44150  33.28081
      18 106.65487  32.43310         11.79967   6.940260 109.44150  33.28081 103.85771  32.60111 103.86825  31.58540 109.45203  32.26510
      18 106.66541  31.41700         11.80875   6.940260 109.45203  32.26510 103.86825  31.58540 103.87879  30.56891 109.46258  31.24860
      18 106.67596  30.40012         11.81784   6.940260 109.46258  31.24860 103.87879  30.56891 103.88934  29.55164 109.47313  30.23133
      18 106.68652  29.38245         11.82693   6.940260 109.47313  30.23133 103.88934  29.55164 103.89990  28.53358 109.48369  29.21327
      18 106.69708  28.36401         11.83604   6.940260 109.48369  29.21327 103.89990  28.53358 103.91047  27.51474 109.49425  28.19443
      18 106.70765  27.34477         11.84514   6.940260 109.49425  28.19443 103.91047  27.51474 103.92105  26.49511 109.50483  27.17481
      18 106.71823  26.32476         11.85426   6.940260 109.50483  27.17481 103.92105  26.49511 103.93163  25.47471 109.51541  26.15440
      18 106.72882  25.30396         11.86338   6.940260 109.51541  26.15440 103.93163  25.47471 103.94222  24.45351 109.52600  25.13321
      18 106.73941  24.28237         11.87251   6.940260 109.52600  25.13321 103.94222  24.45351 103.95282  23.43153 109.53660  24.11123
      18 106.75002  23.26000         11.88165   6.940260 109.53660  24.11123 103.95282  23.43153 103.96343  22.40877 109.54721  23.08846
      18 106.76063  22.23684         11.89079   6.940260 109.54721  23.08846 103.96343  22.40877 103.97405  21.38521 109.55783  22.06491
      18 106.77125  21.21289         11.89994   6.940260 109.55783  22.06491 103.97405  21.38521 103.98467  20.36087 109.56845  21.04056
      18 106.78188  20.18815         11.90910   6.940260 109.56845  21.04056 103.98467  20.36087 103.99530  19.33574 109.57909  20.01543
      18 106.79251  19.16263         11.91826   6.940260 109.57909  20.01543 103.99530  19.33574 104.00594  18.30982 109.58973  18.98952
      18 106.80316  18.13632         11.92743   6.940260 109.58973  18.98952 104.00594  18.30982 104.01659  17.28312 109.60038  17.96281
      18 106.81381  17.10921         11.93661   6.940260 109.60038  17.96281 104.01659  17.28312 104.02725  16.25562 109.61103  16.93531
      18 106.82447  16.08132         11.94580   6.940260 109.61103  16.93531 104.02725  16.25562 104.03791  15.22733 109.62170  15.90702
      18 106.83514  15.05264         11.95499   6.940260 109.62170  15.90702 104.03791  15.22733 104.04859  14.19825 109.63237  14.87794
      18 106.84582  14.02316         11.96419   6.940260 109.63237  14.87794 104.04859  14.19825 104.05927  13.16838 109.64305  13.84807
      18 106.85651  12.99289         11.97340   6.940260 109.64305  13.84807 104.05927  13.16838 104.06996  12.13771 109.65374  12.81741
      17  96.85655 127.56554         11.58383   7.292520  99.64357 128.39413  94.06407 127.68012  94.06954 126.73694  99.64904 127.45095
      17  96.86202 126.62198         11.59275   7.292520  99.64904 127.45095  94.06954 126.73694  94.07501 125.79302  99.65451 126.50703
      17  96.86750 125.67771         11.60167   7.292520  99.65451 126.50703  94.07501 125.79302  94.08049 124.84838  99.65999 125.56239
      17  96.87298 124.73270         11.61059   7.292520  99.65999 125.56239  94.08049 124.84838  94.08597 123.90301  99.66547 124.61702
      17  96.87847 123.78697         11.61953   7.292520  99.66547 124.61702  94.08597 123.90301  94.09146 122.95692  99.67096 123.67093
      17  96.88395 122.84051         11.62847   7.292520  99.67096 123.67093  94.09146 122.95692  94.09695 122.01010  99.67645 122.72411
      17  96.88945 121.89333         11.63742   7.292520  99.67645 122.72411  94.09695 122.01010  94.10245 121.06254  99.68194 121.77655
      17  96.89494 120.94541         11.64637   7.292520  99.68194 121.77655  94.10245 121.06254  94.10794 120.11426  99.68744 120.82827
      17  96.90045 119.99676         11.65534   7.292520  99.68744 120.82827  94.10794 120.11426  94.11345 119.16525  99.69295 119.87926
      17  96.90595 119.04739         11.66431   7.292520  99.69295 119.87926  94.11345 119.16525  94.11896 118.21551  99.69846 118.92952
      17  96.91146 118.09728         11.67328   7.292520  99.69846 118.92952  94.11896 118.21551  94.12447 117.26504  99.70397 117.97905
      17  96.91698 117.14645         11.68226   7.292520  99.70397 117.97905  94.12447 117.26504  94.12999 116.31384  99.70949 117.02785
      17  96.92250 116.19488         11.69125   7.292520  99.70949 117.02785  94.12999 116.31384  94.13551 115.36190  99.71501 116.07591
      17  96.92802 115.24257         11.70025   7.292520  99.71501 116.07591  94.13551 115.36190  94.14103 114.40924  99.72053 115.12325
      17  96.93355 114.28954         11.70925   7.292520  99.72053 115.12325  94.14103 114.40924  94.14656 113.45584  99.72606 114.16985
      17  96.93908 113.33577         11.71827   7.292520  99.72606 114.16985  94.14656 113.45584  94.15209 112.50170  99.73159 113.21571
      17  96.94461 112.38127         11.72728   7.292520  99.73159 113.21571  94.15209 112.50170  94.15763 111.54683  99.73713 112.26084
      17  96.95015 111.42604         11.73631   7.292520  99.73713 112.26084  94.15763 111.54683  94.16317 110.59123  99.74267 111.30524
      17  96.95570 110.47007         11.74534   7.292520  99.74267 111.30524  94.16317 110.59123  94.16872 109.63489  99.74822 110.34890
      17  96.96125 109.51336         11.75438   7.292520  99.74822 110.34890  94.16872 109.63489  94.17427 108.67782  99.75377 109.39183
      17  96.96680 108.55592         11.76342   7.292520  99.75377 109.39183  94.17427 108.67782  94.17983 107.72001  99.75933 108.43402
      17  96.97236 107.59774         11.77247   7.292520  99.75933 108.43402  94.17983 107.72001  94.18538 106.76146  99.76488 107.47547
      17  96.97792 106.63882         11.78153   7.292520  99.76488 107.47547  94.18538 106.76146  94.19095 105.80217  99.77045 106.51618
      17  96.98348 105.67916         11.79060   7.292520  99.77045 106.51618  94.19095 105.80217  94.19652 104.84215  99.77602 105.55616
      17  96.98905 104.71877         11.79967   7.292520  99.77602 105.55616  94.19652 104.84215  94.20209 103.88138  99.78159 104.59539
      17  96.99463 103.75764         11.80875   7.292520  99.78159 104.59539  94.20209 103.88138  94.20766 102.91988  99.78716 103.63389
      17  97.00020 102.79577         11.81784   7.292520  99.78716 103.63389  94.20766 102.91988  94.21324 101.95764  99.79274 102.67165
      17  97.00579 101.83315         11.82693   7.292520  99.79274 102.67165  94.21324 101.95764  94.21883 100.99466  99.79833 101.70867
      17  97.01137 100.86980         11.83604   7.292520  99.79833 101.70867  94.21883 100.99466  94.22442 100.03093  99.80392 100.74494
      17  97.01697  99.90571         11.84514   7.292520  99.80392 100.74494  94.22442 100.03093  94.23001  99.06647  99.80951  99.78048
      17  97.02256  98.94087         11.85426   7.292520  99.80951  99.78048  94.23001  99.06647  94.23561  98.10126  99.81511  98.81527
      17  97.02816  97.97529         11.86338   7.292520  99.81511  98.81527  94.23561  98.10126  94.24121  97.13531  99.82071  97.84932
      17  97.03376  97.00897         11.87251   7.292520  99.82071  97.84932  94.24121  97.13531  94.24682  96.16862  99.82632  96.88263
      17  97.03937  96.04191         11.88165   7.292520  99.82632  96.88263  94.24682  96.16862  94.25243  95.20118  99.83193  95.91519
      17  97.04499  95.07410         11.89079   7.292520  99.83193  95.91519  94.25243  95.20118  94.25804  94.23300  99.83754  94.94701
      17  97.05060  94.10554         11.89994   7.292520  99.83754  94.94701  94.25804  94.23300  94.26366  93.26407  99.84316  93.97808
      17  97.05622  93.13624         11.90910   7.292520  99.84316  93.97808  94.26366  93.26407  94.26929  92.29440  99.84879  93.00841
      17  97.06185  92.16620         11.91826   7.292520  99.84879  93.00841  94.26929  92.29440  94.27491  91.32398  99.85441  92.03799
      17  97.06748  91.19540         11.92743   7.292520  99.85441  92.03799  94.27491  91.32398  94.28055  90.35282  99.86005  91.06683
      17  97.07312  90.22387         11.93661   7.292520  99.86005  91.06683  94.28055  90.35282  94.28618  89.38090  99.86568  90.09491
      17  97.07875  89.25158         11.94580   7.292520  99.86568  90.09491  94.28618  89.38090  94.29182  88.40824  99.87132  89.12225
      17  97.08440  88.27854         11.95499   7.292520  99.87132  89.12225  94.29182  88.40824  94.29747  87.43484  99.87697  88.14885
      17  97.09004  87.30476         11.96419   7.292520  99.87697  88.14885  94.29747  87.43484  94.30312  86.46068  99.88262  87.17469
      17  97.09570  86.33023         11.97340   7.292520  99.88262  87.17469  94.30312  86.46068  94.30877  85.48577  99.88827  86.19978
      17  97.10135  85.35495         11.98261   7.292520  99.88827  86.19978  94.30877  85.48577  94.31443  84.51011  99.89393  85.22412
      17  97.10701  84.37891         11.99183   7.292520  99.89393  85.22412  94.31443  84.51011  94.32009  83.53370  99.89959  84.24771
      17  97.11268  83.40213         12.00106   7.292520  99.89959  84.24771  94.32009  83.53370  94.32576  82.55654  99.90526  83.27055
      17  97.11835  82.42459         12.01029   7.292520  99.90526  83.27055  94.32576  82.55654  94.33143  81.57863  99.91093  82.29264
      17  97.12402  81.44630         12.01954   7.292520  99.91093  82.29264  94.33143  81.57863  94.33711  80.59997  99.91661  81.31398
      17  97.12970  80.46726         12.02879   7.292520  99.91661  81.31398  94.33711  80.59997  94.34279  79.62055  99.92229  80.33456
      17  97.13538  79.48747         12.03804   7.292520  99.92229  80.33456  94.34279  79.62055  94.34847  78.64038  99.92797  79.35439
      17  97.14107  78.50692         12.04731   7.292520  99.92797  79.35439  94.34847  78.64038  94.35416  77.65945  99.93366  78.37346
      17  97.14676  77.52562         12.05658   7.292520  99.93366  78.37346  94.35416  77.65945  94.35986  76.67777  99.93936  77.39178
      17  97.15245  76.54356         12.06585   7.292520  99.93936  77.39178  94.35986  76.67777  94.36555  75.69533  99.94505  76.40934
      17  97.15815  75.56074         12.07514   7.292520  99.94505  76.40934  94.36555  75.69533  94.37126  74.71214  99.95076  75.42615
      17  97.16386  74.57717         12.08443   7.292520  99.95076  75.42615  94.37126  74.71214  94.37696  73.72819  99.95646  74.44220
      17  97.16957  73.59285         12.09373   7.292520  99.95646  74.44220  94.37696  73.72819  94.38267  72.74349  99.96217  73.45750
      17  97.17528  72.60776         12.10304   7.292520  99.96217  73.45750  94.38267  72.74349  94.38839  71.75802  99.96789  72.47203
      17  97.18100  71.62192         12.11235   7.292520  99.96789  72.47203  94.38839  71.75802  94.39411  70.77180  99.97361  71.48581
      17  97.18672  70.63532         12.12167   7.292520  99.97361  71.48581  94.39411  70.77180  94.39983  69.78482  99.97933  70.49883
      17  97.19245  69.64796         12.13100   7.292520  99.97933  70.49883  94.39983  69.78482  94.40556  68.79708  99.98506  69.51109
      17  97.19818  68.65984         12.14034   7.292520  99.98506  69.51109  94.40556  68.79708  94.41129  67.80858  99.99079  68.52259
      17  97.20391  67.67096         12.14968   7.292520  99.99079  68.52259  94.41129  67.80858  94.41703  66.81932  99.99653  67.53333
      17  97.20965  66.68131         12.15903   7.292520  99.99653  67.53333  94.41703  66.81932  94.42277  65.82930 100.00227  66.54331
      17  97.21539  65.69091         12.16838   7.292520 100.00227  66.54331  94.42277  65.82930  94.42852  64.83851 100.00802  65.55252
      17  97.22114  64.69975         12.17775   7.292520 100.00802  65.55252  94.42852  64.83851  94.43427  63.84697 100.01377  64.56098
      17  97.22690  63.70782         12.18712   7.292520 100.01377  64.56098  94.43427  63.84697  94.44002  62.85466 100.01952  63.56867
      17  97.23265  62.71513         12.19650   7.292520 100.01952  63.56867  94.44002  62.85466  94.44578  61.86158 100.02528  62.57559
      17  97.23841  61.72167         12.20588   7.292520 100.02528  62.57559  94.44578  61.86158  94.45155  60.86775 100.03105  61.58176
      17  97.24418  60.72745         12.21528   7.292520 100.03105  61.58176  94.45155  60.86775  94.45731  59.87314 100.03681  60.58715
      17  97.24995  59.73247         12.22468   7.292520 100.03681  60.58715  94.45731  59.87314  94.46309  58.87778 100.04259  59.59179
      17  97.25573  58.73672         12.23408   7.292520 100.04259  59.59179  94.46309  58.87778  94.46886  57.88164 100.04836  58.59565
      17  97.26150  57.74020         12.24350   7.292520 100.04836  58.59565  94.46886  57.88164  94.47465  56.88474 100.05415  57.59875
      17  97.26729  56.74292         12.25292   7.292520 100.05415  57.59875  94.47465  56.88474  94.48043  55.88708 100.05993  56.60109
      17  97.27308  55.74486         12.26235   7.292520 100.05993  56.60109  94.48043  55.88708  94.48622  54.88864 100.06572  55.60265
      17  97.27887  54.74604         12.27178   7.292520 100.06572  55.60265  94.48622  54.88864  94.49202  53.88944 100.07152  54.60345
      17  97.28467  53.74646         12.28123   7.292520 100.07152  54.60345  94.49202  53.88944  94.49782  52.88947 100.07732  53.60348
      17  97.29047  52.74610         12.29068   7.292520 100.07732  53.60348  94.49782  52.88947  94.50362  51.88872 100.08312  52.60273
      17  97.29627  51.74497         12.30014   7.292520 100.08312  52.60273  94.50362  51.88872  94.50943  50.88721 100.08893  51.60122
      17  97.30208  50.74308         12.30960   7.292520 100.08893  51.60122  94.50943  50.88721  94.51524  49.88493 100.09474  50.59894
      17  97.30790  49.74041         12.31907   7.292520 100.09474  50.59894  94.51524  49.88493  94.52106  48.88188 100.10056  49.59589
      17  97.31372  48.73697         12.32855   7.292520 100.10056  49.59589  94.52106  48.88188  94.52688  47.87805 100.10638  48.59206
      17  97.31954  47.73276         12.33804   7.292520 100.10638  48.59206  94.52688  47.87805  94.53271  46.87345 100.11221  47.58746
      17  97.32537  46.72777         12.34754   7.292520 100.11221  47.58746  94.53271  46.87345  94.53854  45.86808 100.11804  46.58209
      17  97.33120  45.72201         12.35704   7.292520 100.11804  46.58209  94.53854  45.86808  94.54437  44.86194 100.12387  45.57595
      17  97.33704  44.71548         12.36655   7.292520 100.12387  45.57595  94.54437  44.86194  94.55021  43.85502 100.12971  44.56903
      17  97.34288  43.70818         12.37606   7.292520 100.12971  44.56903  94.55021  43.85502  94.55606  42.84732 100.13556  43.56133
      17  97.34873  42.70009         12.38559   7.292520 100.13556  43.56133  94.55606  42.84732  94.56190  41.83885 100.14140  42.55286
      17  97.35458  41.69124         12.39512   7.292520 100.14140  42.55286  94.56190  41.83885  94.56776  40.82961 100.14726  41.54362
      17  97.36044  40.68160         12.40466   7.292520 100.14726  41.54362  94.56776  40.82961  94.57362  39.81959 100.15312  40.53360
      17  97.36630  39.67119         12.41420   7.292520 100.15312  40.53360  94.57362  39.81959  94.57948  38.80879 100.15898  39.52280
      17  97.37216  38.66000         12.42375   7.292520 100.15898  39.52280  94.57948  38.80879  94.58534  37.79721 100.16484  38.51122
      17  97.37803  37.64804         12.43331   7.292520 100.16484  38.51122  94.58534  37.79721  94.59122  36.78485 100.17072  37.49886
      17  97.38390  36.63529         12.44288   7.292520 100.17072  37.49886  94.59122  36.78485  94.59709  35.77172 100.17659  36.48573
      17  97.38978  35.62177         12.45246   7.292520 100.17659  36.48573  94.59709  35.77172  94.60297  34.75781 100.18247  35.47182
      17  97.39566  34.60746         12.46204   7.292520 100.18247  35.47182  94.60297  34.75781  94.60886  33.74311 100.18836  34.45712
      17  97.40155  33.59238         12.47163   7.292520 100.18836  34.45712  94.60886  33.74311  94.61475  32.72764 100.19425  33.44165
      17  97.40744  32.57651         12.48123   7.292520 100.19425  33.44165  94.61475  32.72764  94.62064  31.71138 100.20014  32.42539
      17  97.41334  31.55986         12.49083   7.292520 100.20014  32.42539  94.62064  31.71138  94.62654  30.69434 100.20604  31.40835
      17  97.41924  30.54243         12.50044   7.292520 100.20604  31.40835  94.62654  30.69434  94.63244  29.67652 100.21194  30.39053
      17  97.42514  29.52422         12.51006   7.292520 100.21194  30.39053  94.63244  29.67652  94.63835  28.65791 100.21785  29.37192
      17  97.43105  28.50523         12.51969   7.292520 100.21785  29.37192  94.63835  28.65791  94.64426  27.63853 100.22376  28.35254
      17  97.43697  27.48544         12.52932   7.292520 100.22376  28.35254  94.64426  27.63853  94.65018  26.61835 100.22968  27.33236
      17  97.44289  26.46488         12.53897   7.292520 100.22968  27.33236  94.65018  26.61835  94.65610  25.59739 100.23560  26.31140
      17  97.44881  25.44353         12.54862   7.292520 100.23560  26.31140  94.65610  25.59739  94.66202  24.57565 100.24152  25.28966
      17  97.45474  24.42139         12.55827   7.292520 100.24152  25.28966  94.66202  24.57565  94.66795  23.55312 100.24745  24.26713
      17  97.46067  23.39847         12.56794   7.292520 100.24745  24.26713  94.66795  23.55312  94.67389  22.52980 100.25339  23.24381
      17  97.46661  22.37476         12.57761   7.292520 100.25339  23.24381  94.67389  22.52980  94.67983  21.50570 100.25933  22.21971
      17  97.47255  21.35026         12.58729   7.292520 100.25933  22.21971  94.67983  21.50570  94.68577  20.48081 100.26527  21.19482
      17  97.47850  20.32497         12.59697   7.292520 100.26527  21.19482  94.68577  20.48081  94.69172  19.45513 100.27122  20.16914
      17  97.48445  19.29890         12.60667   7.292520 100.27122  20.16914  94.69172  19.45513  94.69767  18.42866 100.27717  19.14267
      17  97.49040  18.27203         12.61637   7.292520 100.27717  19.14267  94.69767  18.42866  94.70363  17.40140 100.28313  18.11541
      17  97.49636  17.24438         12.62608   7.292520 100.28313  18.11541  94.70363  17.40140  94.70959  16.37335 100.28909  17.08736
      17  97.50233  16.21593         12.63579   7.292520 100.28909  17.08736  94.70959  16.37335  94.71556  15.34450 100.29506  16.05851
      17  97.50829  15.18669         12.64552   7.292520 100.29506  16.05851  94.71556  15.34450  94.72153  14.31487 100.30103  15.02888
      17  97.51427  14.15666         12.65525   7.292520 100.30103  15.02888  94.72153  14.31487  94.72751  13.28444 100.30701  13.99845
      17  97.52025  13.12584         12.66498   7.292520 100.30701  13.99845  94.72751  13.28444  94.73349  12.25323 100.31299  12.96724
      17  97.52623  12.09422         12.67473   7.292520 100.31299  12.96724  94.73349  12.25323  94.73947  11.22121 100.31897  11.93522
      17  97.53222  11.06181         12.68448   7.292520 100.31897  11.93522  94.73947  11.22121  94.74546  10.18841 100.32496  10.90242
      17  97.53821  10.02861         12.69425   7.292520 100.32496  10.90242  94.74546  10.18841  94.75146   9.15481 100.33096   9.86882
      17  97.54421   8.99461         12.70401   7.292520 100.33096   9.86882  94.75146   9.15481  94.75746   8.12041 100.33696   8.83442
      17  97.55021   7.95982         12.71379   7.292520 100.33696   8.83442  94.75746   8.12041  94.76346   7.08522 100.34296   7.79923
      17  97.55621   6.92423         12.72357   7.292520 100.34296   7.79923  94.76346   7.08522  94.76947   6.04923 100.34897   6.76324
      16  87.32111 127.24453         12.30014   7.726600  90.11060 128.09529  84.53667 127.33903  84.53161 126.39376  90.10554 127.15002
      16  87.31604 126.29889         12.30960   7.726600  90.10554 127.15002  84.53161 126.39376  84.52655 125.44776  90.10048 126.20402
      16  87.31098 125.35253         12.31907   7.726600  90.10048 126.20402  84.52655 125.44776  84.52148 124.50104  90.09541 125.25730
      16  87.30590 124.40544         12.32855   7.726600  90.09541 125.25730  84.52148 124.50104  84.51640 123.55358  90.09033 124.30984
      16  87.30083 123.45762         12.33804   7.726600  90.09033 124.30984  84.51640 123.55358  84.51133 122.60540  90.08526 123.36166
      16  87.29575 122.50907         12.34754   7.726600  90.08526 123.36166  84.51133 122.60540  84.50624 121.65649  90.08017 122.41275
      16  87.29067 121.55980         12.35704   7.726600  90.08017 122.41275  84.50624 121.65649  84.50116 120.70684  90.07509 121.46310
      16  87.28558 120.60979         12.36655   7.726600  90.07509 121.46310  84.50116 120.70684  84.49607 119.75647  90.07000 120.51273
      16  87.28049 119.65905         12.37606   7.726600  90.07000 120.51273  84.49607 119.75647  84.49098 118.80537  90.06491 119.56163
      16  87.27539 118.70758         12.38559   7.726600  90.06491 119.56163  84.49098 118.80537  84.48588 117.85353  90.05981 118.60979
      16  87.27029 117.75537         12.39512   7.726600  90.05981 118.60979  84.48588 117.85353  84.48078 116.90096  90.05471 117.65722
      16  87.26519 116.80244         12.40466   7.726600  90.05471 117.65722  84.48078 116.90096  84.47567 115.94766  90.04960 116.70392
      16  87.26009 115.84877         12.41420   7.726600  90.04960 116.70392  84.47567 115.94766  84.47057 114.99362  90.04450 115.74988
      16  87.25497 114.89436         12.42375   7.726600  90.04450 115.74988  84.47057 114.99362  84.46545 114.03885  90.03938 114.79511
      16  87.24986 113.93923         12.43331   7.726600  90.03938 114.79511  84.46545 114.03885  84.46034 113.08334  90.03427 113.83960
      16  87.24474 112.98335         12.44288   7.726600  90.03427 113.83960  84.46034 113.08334  84.45522 112.12710  90.02915 112.88336
      16  87.23962 112.02675         12.45246   7.726600  90.02915 112.88336  84.45522 112.12710  84.45009 111.17013  90.02402 111.92639
      16  87.23449 111.06940         12.46204   7.726600  90.02402 111.92639  84.45009 111.17013  84.44496 110.21241  90.01889 110.96867
      16  87.22936 110.11132         12.47163   7.726600  90.01889 110.96867  84.44496 110.21241  84.43983 109.25396  90.01376 110.01022
      16  87.22423 109.15250         12.48123   7.726600  90.01376 110.01022  84.43983 109.25396  84.43469 108.29478  90.00862 109.05104
      16  87.21909 108.19294         12.49083   7.726600  90.00862 109.05104  84.43469 108.29478  84.42955 107.33485  90.00348 108.09111
      16  87.21395 107.23265         12.50044   7.726600  90.00348 108.09111  84.42955 107.33485  84.42441 106.37419  89.99834 107.13045
      16  87.20880 106.27162         12.51006   7.726600  89.99834 107.13045  84.42441 106.37419  84.41926 105.41278  89.99319 106.16904
      16  87.20365 105.30984         12.51969   7.726600  89.99319 106.16904  84.41926 105.41278  84.41411 104.45064  89.98804 105.20690
      16  87.19850 104.34733         12.52932   7.726600  89.98804 105.20690  84.41411 104.45064  84.40895 103.48776  89.98288 104.24402
      16  87.19334 103.38408         12.53897   7.726600  89.98288 104.24402  84.40895 103.48776  84.40379 102.52413  89.97772 103.28039
      16  87.18818 102.42008         12.54862   7.726600  89.97772 103.28039  84.40379 102.52413  84.39863 101.55977  89.97256 102.31603
      16  87.18301 101.45534         12.55827   7.726600  89.97256 102.31603  84.39863 101.55977  84.39346 100.59466  89.96739 101.35092
      16  87.17784 100.48986         12.56794   7.726600  89.96739 101.35092  84.39346 100.59466  84.38829  99.62881  89.96222 100.38507
      16  87.17267  99.52364         12.57761   7.726600  89.96222 100.38507  84.38829  99.62881  84.38311  98.66221  89.95704  99.41847
      16  87.16749  98.55667         12.58729   7.726600  89.95704  99.41847  84.38311  98.66221  84.37793  97.69488  89.95186  98.45114
      16  87.16231  97.58896         12.59697   7.726600  89.95186  98.45114  84.37793  97.69488  84.37275  96.72679  89.94668  97.48305
      16  87.15712  96.62051         12.60667   7.726600  89.94668  97.48305  84.37275  96.72679  84.36756  95.75797  89.94149  96.51423
      16  87.15193  95.65131         12.61637   7.726600  89.94149  96.51423  84.36756  95.75797  84.36237  94.78839  89.93630  95.54465
      16  87.14674  94.68136         12.62608   7.726600  89.93630  95.54465  84.36237  94.78839  84.35717  93.81807  89.93110  94.57433
      16  87.14154  93.71067         12.63579   7.726600  89.93110  94.57433  84.35717  93.81807  84.35197  92.84701  89.92590  93.60327
      16  87.13634  92.73923         12.64552   7.726600  89.92590  93.60327  84.35197  92.84701  84.34677  91.87520  89.92070  92.63146
      16  87.13113  91.76705         12.65525   7.726600  89.92070  92.63146  84.34677  91.87520  84.34156  90.90263  89.91549  91.65889
      16  87.12592  90.79411         12.66498   7.726600  89.91549  91.65889  84.34156  90.90263  84.33635  89.92933  89.91028  90.68559
      16  87.12071  89.82043         12.67473   7.726600  89.91028  90.68559  84.33635  89.92933  84.33114  88.95527  89.90507  89.71153
      16  87.11549  88.84599         12.68448   7.726600  89.90507  89.71153  84.33114  88.95527  84.32592  87.98046  89.89985  88.73672
      16  87.11027  87.87081         12.69425   7.726600  89.89985  88.73672  84.32592  87.98046  84.32069  87.00490  89.89462  87.76116
      16  87.10504  86.89488         12.70401   7.726600  89.89462  87.76116  84.32069  87.00490  84.31546  86.02859  89.88939  86.78485
      16  87.09981  85.91819         12.71379   7.726600  89.88939  86.78485  84.31546  86.02859  84.31023  85.05153  89.88416  85.80779
      16  87.09458  84.94076         12.72357   7.726600  89.88416  85.80779  84.31023  85.05153  84.30500  84.07372  89.87893  84.82998
      16  87.08934  83.96257         12.73336   7.726600  89.87893  84.82998  84.30500  84.07372  84.29976  83.09516  89.87369  83.85142
      16  87.08410  82.98363         12.74316   7.726600  89.87369  83.85142  84.29976  83.09516  84.29451  82.11584  89.86844  82.87210
      16  87.07885  82.00394         12.75297   7.726600  89.86844  82.87210  84.29451  82.11584  84.28926  81.13577  89.86319  81.89203
      16  87.07360  81.02349         12.76278   7.726600  89.86319  81.89203  84.28926  81.13577  84.28401  80.15494  89.85794  80.91120
      16  87.06835  80.04228         12.77260   7.726600  89.85794  80.91120  84.28401  80.15494  84.27875  79.17336  89.85268  79.92963
      16  87.06309  79.06033         12.78243   7.726600  89.85268  79.92963  84.27875  79.17336  84.27349  78.19103  89.84742  78.94729
      16  87.05783  78.07761         12.79227   7.726600  89.84742  78.94729  84.27349  78.19103  84.26823  77.20794  89.84216  77.96420
      16  87.05256  77.09414         12.80211   7.726600  89.84216  77.96420  84.26823  77.20794  84.26296  76.22409  89.83689  76.98035
      16  87.04729  76.10992         12.81197   7.726600  89.83689  76.98035  84.26296  76.22409  84.25769  75.23949  89.83162  75.99575
      16  87.04202  75.12494         12.82182   7.726600  89.83162  75.99575  84.25769  75.23949  84.25241  74.25412  89.82634  75.01038
      16  87.03674  74.13919         12.83169   7.726600  89.82634  75.01038  84.25241  74.25412  84.24713  73.26800  89.82106  74.02426
      16  87.03146  73.15269         12.84157   7.726600  89.82106  74.02426  84.24713  73.26800  84.24185  72.28112  89.81578  73.03738
      16  87.02617  72.16543         12.85145   7.726600  89.81578  73.03738  84.24185  72.28112  84.23656  71.29349  89.81049  72.04975
      16  87.02088  71.17742         12.86134   7.726600  89.81049  72.04975  84.23656  71.29349  84.23127  70.30509  89.80520  71.06135
      16  87.01558  70.18864         12.87123   7.726600  89.80520  71.06135  84.23127  70.30509  84.22597  69.31593  89.79990  70.07219
      16  87.01028  69.19910         12.88114   7.726600  89.79990  70.07219  84.22597  69.31593  84.22067  68.32601  89.79460  69.08227
      16  87.00498  68.20879         12.89105   7.726600  89.79460  69.08227  84.22067  68.32601  84.21536  67.33532  89.78929  68.09158
      16  86.99967  67.21773         12.90097   7.726600  89.78929  68.09158  84.21536  67.33532  84.21005  66.34388  89.78398  67.10014
      16  86.99436  66.22590         12.91090   7.726600  89.78398  67.10014  84.21005  66.34388  84.20474  65.35167  89.77867  66.10793
      16  86.98905  65.23332         12.92083   7.726600  89.77867  66.10793  84.20474  65.35167  84.19942  64.35870  89.77335  65.11496
      16  86.98373  64.23996         12.93078   7.726600  89.77335  65.11496  84.19942  64.35870  84.19410  63.36496  89.76803  64.12122
      16  86.97841  63.24584         12.94073   7.726600  89.76803  64.12122  84.19410  63.36496  84.18878  62.37046  89.76271  63.12672
      16  86.97308  62.25096         12.95069   7.726600  89.76271  63.12672  84.18878  62.37046  84.18345  61.37520  89.75738  62.13146
      16  86.96775  61.25531         12.96065   7.726600  89.75738  62.13146  84.18345  61.37520  84.17811  60.37917  89.75204  61.13543
      16  86.96241  60.25890         12.97063   7.726600  89.75204  61.13543  84.17811  60.37917  84.17278  59.38237  89.74671  60.13863
      16  86.95707  59.26172         12.98061   7.726600  89.74671  60.13863  84.17278  59.38237  84.16744  58.38480  89.74137  59.14106
      16  86.95173  58.26377         12.99060   7.726600  89.74137  59.14106  84.16744  58.38480  84.16209  57.38647  89.73602  58.14273
      16  86.94638  57.26505         13.00059   7.726600  89.73602  58.14273  84.16209  57.38647  84.15674  56.38737  89.73067  57.14363
      16  86.94103  56.26557         13.01060   7.726600  89.73067  57.14363  84.15674  56.38737  84.15139  55.38750  89.72532  56.14376
      16  86.93567  55.26531         13.02061   7.726600  89.72532  56.14376  84.15139  55.38750  84.14603  54.38686  89.71996  55.14312
      16  86.93031  54.26429         13.03063   7.726600  89.71996  55.14312  84.14603  54.38686  84.14066  53.38545  89.71459  54.14171
      16  86.92495  53.26249         13.04066   7.726600  89.71459  54.14171  84.14066  53.38545  84.13530  52.38327  89.70923  53.13953
      16  86.91958  52.25993         13.05069   7.726600  89.70923  53.13953  84.13530  52.38327  84.12993  51.38032  89.70386  52.13658
      16  86.91421  51.25659         13.06073   7.726600  89.70386  52.13658  84.12993  51.38032  84.12455  50.37660  89.69848  51.13286
      16  86.90883  50.25248         13.07078   7.726600  89.69848  51.13286  84.12455  50.37660  84.11917  49.37211  89.69310  50.12837
      16  86.90345  49.24760         13.08084   7.726600  89.69310  50.12837  84.11917  49.37211  84.11379  48.36684  89.68772  49.12310
      16  86.89806  48.24195         13.09091   7.726600  89.68772  49.12310  84.11379  48.36684  84.10840  47.36080  89.68233  48.11706
      16  86.89267  47.23552         13.10098   7.726600  89.68233  48.11706  84.10840  47.36080  84.10301  46.35398  89.67694  47.11024
      16  86.88728  46.22832         13.11106   7.726600  89.67694  47.11024  84.10301  46.35398  84.09762  45.34639  89.67155  46.10265
      16  86.88188  45.22034         13.12115   7.726600  89.67155  46.10265  84.09762  45.34639  84.09222  44.33802  89.66615  45.09428
      16  86.87648  44.21158         13.13125   7.726600  89.66615  45.09428  84.09222  44.33802  84.08681  43.32888  89.66074  44.08514
      16  86.87107  43.20205         13.14136   7.726600  89.66074  44.08514  84.08681  43.32888  84.08141  42.31896  89.65534  43.07522
      16  86.86566  42.19175         13.15147   7.726600  89.65534  43.07522  84.08141  42.31896  84.07599  41.30827  89.64992  42.06453
      16  86.86025  41.18066         13.16159   7.726600  89.64992  42.06453  84.07599  41.30827  84.07058  40.29680  89.64451  41.05306
      16  86.85483  40.16880         13.17172   7.726600  89.64451  41.05306  84.07058  40.29680  84.06516  39.28454  89.63909  40.04080
      16  86.84941  39.15616         13.18185   7.726600  89.63909  40.04080  84.06516  39.28454  84.05973  38.27151  89.63366  39.02777
      16  86.84398  38.14274         13.19200   7.726600  89.63366  39.02777  84.05973  38.27151  84.05430  37.25770  89.62823  38.01396
      16  86.83855  37.12854         13.20215   7.726600  89.62823  38.01396  84.05430  37.25770  84.04887  36.24311  89.62280  36.99937
      16  86.83312  36.11356         13.21231   7.726600  89.62280  36.99937  84.04887  36.24311  84.04343  35.22774  89.61736  35.98400
      16  86.82768  35.09779         13.22247   7.726600  89.61736  35.98400  84.04343  35.22774  84.03799  34.21159  89.61192  34.96785
      16  86.82223  34.08125         13.23265   7.726600  89.61192  34.96785  84.03799  34.21159  84.03255  33.19465  89.60648  33.95091
      16  86.81679  33.06393         13.24283   7.726600  89.60648  33.95091  84.03255  33.19465  84.02710  32.17694  89.60103  32.93320
      16  86.81133  32.04582         13.25302   7.726600  89.60103  32.93320  84.02710  32.17694  84.02164  31.15844  89.59557  31.91470
      16  86.80588  31.02693         13.26322   7.726600  89.59557  31.91470  84.02164  31.15844  84.01618  30.13915  89.59011  30.89541
      16  86.80042  30.00725         13.27343   7.726600  89.59011  30.89541  84.01618  30.13915  84.01072  29.11908  89.58465  29.87534
      16  86.79495  28.98679         13.28364   7.726600  89.58465  29.87534  84.01072  29.11908  84.00526  28.09823  89.57919  28.85449
      16  86.78949  27.96554         13.29386   7.726600  89.57919  28.85449  84.00526  28.09823  83.99979  27.07659  89.57372  27.83285
      16  86.78401  26.94351         13.30409   7.726600  89.57372  27.83285  83.99979  27.07659  83.99431  26.05417  89.56824  26.81043
      16  86.77854  25.92069         13.31433   7.726600  89.56824  26.81043  83.99431  26.05417  83.98883  25.03096  89.56276  25.78722
      16  86.77305  24.89709         13.32458   7.726600  89.56276  25.78722  83.98883  25.03096  83.98335  24.00696  89.55728  24.76322
      16  86.76757  23.87269         13.33483   7.726600  89.55728  24.76322  83.98335  24.00696  83.97786  22.98217  89.55179  23.73843
      16  86.76208  22.84751         13.34509   7.726600  89.55179  23.73843  83.97786  22.98217  83.97237  21.95659  89.54630  22.71285
      16  86.75659  21.82154         13.35536   7.726600  89.54630  22.71285  83.97237  21.95659  83.96687  20.93023  89.54080  21.68649
      16  86.75109  20.79478         13.36564   7.726600  89.54080  21.68649  83.96687  20.93023  83.96137  19.90307  89.53530  20.65933
      16  86.74559  19.76723         13.37593   7.726600  89.53530  20.65933  83.96137  19.90307  83.95587  18.87513  89.52980  19.63139
      16  86.74008  18.73889         13.38622   7.726600  89.52980  19.63139  83.95587  18.87513  83.95036  17.84639  89.52429  18.60265
      16  86.73457  17.70976         13.39652   7.726600  89.52429  18.60265  83.95036  17.84639  83.94485  16.81686  89.51878  17.57312
      16  86.72905  16.67983         13.40683   7.726600  89.51878  17.57312  83.94485  16.81686  83.93933  15.78654  89.51326  16.54280
      16  86.72353  15.64912         13.41715   7.726600  89.51326  16.54280  83.93933  15.78654  83.93381  14.75543  89.50774  15.51169
      16  86.71801  14.61761         13.42747   7.726600  89.50774  15.51169  83.93381  14.75543  83.92828  13.72353  89.50221  14.47979
      16  86.71248  13.58531         13.43780   7.726600  89.50221  14.47979  83.92828  13.72353  83.92275  12.69082  89.49668  13.44708
      16  86.70695  12.55221         13.44814   7.726600  89.49668  13.44708  83.92275  12.69082  83.91722  11.65733  89.49115  12.41359
      16  86.70141  11.51831         13.45849   7.726600  89.49115  12.41359  83.91722  11.65733  83.91168  10.62304  89.48561  11.37930
      16  86.69587  10.48363         13.46885   7.726600  89.48561  11.37930  83.91168  10.62304  83.90614   9.58795  89.48007  10.34421
      16  86.69033   9.44814         13.47921   7.726600  89.48007  10.34421  83.90614   9.58795  83.90059   8.55207  89.47452   9.30833
      16  86.68478   8.41186         13.48959   7.726600  89.47452   9.30833  83.90059   8.55207  83.89504   7.51539  89.46897   8.27165
      16  86.67923   7.37478         13.49997   7.726600  89.46897   8.27165  83.89504   7.51539  83.88948   6.47791  89.46341   7.23417
      16  86.67367   6.33690         13.51036   7.726600  89.46341   7.23417  83.88948   6.47791  83.88392   5.43964  89.45785   6.19590
      16  86.66811   5.29823         13.52075   7.726600  89.45785   6.19590  83.88392   5.43964  83.87836   4.40056  89.45229   5.15682
      16  86.66254   4.25875         13.53116   7.726600  89.45229   5.15682  83.87836   4.40056  83.87279   3.36069  89.44672   4.11695
      16  86.65697   3.21848         13.54157   7.726600  89.44672   4.11695  83.87279   3.36069  83.86722   2.32001  89.44115   3.07627
      16  86.65139   2.17740         13.55199   7.726600  89.44115   3.07627  83.86722   2.32001  83.86164   1.27853  89.43557   2.03479
      16  86.64582   1.13553         13.56242   7.726600  89.43557   2.03479  83.86164   1.27853  83.85606   0.23626  89.42999   0.99252
      16  86.64023   0.09285         13.57286   7.726600  89.42999   0.99252  83.85606   0.23626  83.85047  -0.80682  89.42440  -0.05056
      15  75.94026 127.77665         13.10098   8.242480  78.72694 128.65286  73.16005 127.84644  73.15357 126.90044  78.72046 127.70685
      15  75.93377 126.83028         13.11106   8.242480  78.72046 127.70685  73.15357 126.90044  73.14709 125.95370  78.71398 126.76012
      15  75.92729 125.88318         13.12115   8.242480  78.71398 126.76012  73.14709 125.95370  73.14060 125.00624  78.70749 125.81265
      15  75.92080 124.93535         13.13125   8.242480  78.70749 125.81265  73.14060 125.00624  73.13410 124.05805  78.70100 124.86446
      15  75.91430 123.98679         13.14136   8.242480  78.70100 124.86446  73.13410 124.05805  73.12760 123.10912  78.69450 123.91554
      15  75.90780 123.03751         13.15147   8.242480  78.69450 123.91554  73.12760 123.10912  73.12110 122.15947  78.68799 122.96589
      15  75.90129 122.08749         13.16159   8.242480  78.68799 122.96589  73.12110 122.15947  73.11459 121.20909  78.68149 122.01550
      15  75.89478 121.13674         13.17172   8.242480  78.68149 122.01550  73.11459 121.20909  73.10808 120.25797  78.67497 121.06439
      15  75.88826 120.18526         13.18185   8.242480  78.67497 121.06439  73.10808 120.25797  73.10156 119.30613  78.66845 120.11254
      15  75.88174 119.23305         13.19200   8.242480  78.66845 120.11254  73.10156 119.30613  73.09503 118.35355  78.66193 119.15996
      15  75.87522 118.28010         13.20215   8.242480  78.66193 119.15996  73.09503 118.35355  73.08850 117.40024  78.65540 118.20665
      15  75.86869 117.32642         13.21231   8.242480  78.65540 118.20665  73.08850 117.40024  73.08197 116.44619  78.64887 117.25261
      15  75.86215 116.37201         13.22247   8.242480  78.64887 117.25261  73.08197 116.44619  73.07543 115.49141  78.64233 116.29783
      15  75.85561 115.41686         13.23265   8.242480  78.64233 116.29783  73.07543 115.49141  73.06889 114.53590  78.63578 115.34231
      15  75.84906 114.46098         13.24283   8.242480  78.63578 115.34231  73.06889 114.53590  73.06234 113.57965  78.62923 114.38606
      15  75.84251 113.50436         13.25302   8.242480  78.62923 114.38606  73.06234 113.57965  73.05578 112.62266  78.62268 113.42908
      15  75.83595 112.54701         13.26322   8.242480  78.62268 113.42908  73.05578 112.62266  73.04923 111.66494  78.61612 112.47136
      15  75.82939 111.58892         13.27343   8.242480  78.61612 112.47136  73.04923 111.66494  73.04266 110.70648  78.60956 111.51290
      15  75.82282 110.63009         13.28364   8.242480  78.60956 111.51290  73.04266 110.70648  73.03609 109.74728  78.60299 110.55370
      15  75.81625 109.67053         13.29386   8.242480  78.60299 110.55370  73.03609 109.74728  73.02952 108.78735  78.59641 109.59377
      15  75.80967 108.71022         13.30409   8.242480  78.59641 109.59377  73.02952 108.78735  73.02294 107.82668  78.58983 108.63309
      15  75.80309 107.74918         13.31433   8.242480  78.58983 108.63309  73.02294 107.82668  73.01635 106.86526  78.58325 107.67168
      15  75.79651 106.78740         13.32458   8.242480  78.58325 107.67168  73.01635 106.86526  73.00976 105.90311  78.57666 106.70953
      15  75.78991 105.82487         13.33483   8.242480  78.57666 106.70953  73.00976 105.90311  73.00317 104.94022  78.57006 105.74663
      15  75.78332 104.86161         13.34509   8.242480  78.57006 105.74663  73.00317 104.94022  72.99657 103.97659  78.56346 104.78300
      15  75.77671 103.89761         13.35536   8.242480  78.56346 104.78300  72.99657 103.97659  72.98996 103.01221  78.55686 103.81863
      15  75.77011 102.93286         13.36564   8.242480  78.55686 103.81863  72.98996 103.01221  72.98335 102.04709  78.55025 102.85351
      15  75.76349 101.96737         13.37593   8.242480  78.55025 102.85351  72.98335 102.04709  72.97674 101.08123  78.54363 101.88765
      15  75.75688 101.00114         13.38622   8.242480  78.54363 101.88765  72.97674 101.08123  72.97012 100.11463  78.53701 100.92104
      15  75.75025 100.03416         13.39652   8.242480  78.53701 100.92104  72.97012 100.11463  72.96349  99.14728  78.53039  99.95370
      15  75.74363  99.06644         13.40683   8.242480  78.53039  99.95370  72.96349  99.14728  72.95686  98.17919  78.52376  98.98561
      15  75.73699  98.09798         13.41715   8.242480  78.52376  98.98561  72.95686  98.17919  72.95023  97.21035  78.51712  98.01677
      15  75.73036  97.12877         13.42747   8.242480  78.51712  98.01677  72.95023  97.21035  72.94359  96.24077  78.51048  97.04719
      15  75.72371  96.15882         13.43780   8.242480  78.51048  97.04719  72.94359  96.24077  72.93694  95.27044  78.50384  96.07686
      15  75.71707  95.18811         13.44814   8.242480  78.50384  96.07686  72.93694  95.27044  72.93029  94.29937  78.49719  95.10578
      15  75.71041  94.21667         13.45849   8.242480  78.49719  95.10578  72.93029  94.29937  72.92364  93.32755  78.49053  94.13396
      15  75.70375  93.24447         13.46885   8.242480  78.49053  94.13396  72.92364  93.32755  72.91698  92.35498  78.48387  93.16139
      15  75.69709  92.27153         13.47921   8.242480  78.48387  93.16139  72.91698  92.35498  72.91031  91.38166  78.47720  92.18807
      15  75.69042  91.29783         13.48959   8.242480  78.47720  92.18807  72.91031  91.38166  72.90364  90.40759  78.47053  91.21401
      15  75.68375  90.32339         13.49997   8.242480  78.47053  91.21401  72.90364  90.40759  72.89696  89.43277  78.46386  90.23919
      15  75.67707  89.34820         13.51036   8.242480  78.46386  90.23919  72.89696  89.43277  72.89028  88.45721  78.45718  89.26362
      15  75.67039  88.37226         13.52075   8.242480  78.45718  89.26362  72.89028  88.45721  72.88359  87.48089  78.45049  88.28730
      15  75.66370  87.39556         13.53116   8.242480  78.45049  88.28730  72.88359  87.48089  72.87690  86.50382  78.44380  87.31023
      15  75.65700  86.41812         13.54157   8.242480  78.44380  87.31023  72.87690  86.50382  72.87021  85.52600  78.43710  86.33241
      15  75.65030  85.43992         13.55199   8.242480  78.43710  86.33241  72.87021  85.52600  72.86350  84.54742  78.43040  85.35384
      15  75.64360  84.46097         13.56242   8.242480  78.43040  85.35384  72.86350  84.54742  72.85680  83.56810  78.42369  84.37451
      15  75.63689  83.48127         13.57286   8.242480  78.42369  84.37451  72.85680  83.56810  72.85008  82.58802  78.41698  83.39443
      15  75.63017  82.50081         13.58330   8.242480  78.41698  83.39443  72.85008  82.58802  72.84337  81.60718  78.41026  82.41360
      15  75.62345  81.51960         13.59375   8.242480  78.41026  82.41360  72.84337  81.60718  72.83664  80.62559  78.40354  81.43201
      15  75.61673  80.53763         13.60421   8.242480  78.40354  81.43201  72.83664  80.62559  72.82992  79.64325  78.39681  80.44967
      15  75.61000  79.55491         13.61468   8.242480  78.39681  80.44967  72.82992  79.64325  72.82318  78.66015  78.39008  79.46657
      15  75.60326  78.57143         13.62516   8.242480  78.39008  79.46657  72.82318  78.66015  72.81645  77.67629  78.38334  78.48271
      15  75.59652  77.58719         13.63564   8.242480  78.38334  78.48271  72.81645  77.67629  72.80970  76.69168  78.37660  77.49809
      15  75.58978  76.60220         13.64614   8.242480  78.37660  77.49809  72.80970  76.69168  72.80295  75.70631  78.36985  76.51272
      15  75.58302  75.61645         13.65664   8.242480  78.36985  76.51272  72.80295  75.70631  72.79620  74.72018  78.36309  75.52659
      15  75.57627  74.62994         13.66715   8.242480  78.36309  75.52659  72.79620  74.72018  72.78944  73.73329  78.35634  74.53970
      15  75.56951  73.64267         13.67766   8.242480  78.35634  74.53970  72.78944  73.73329  72.78268  72.74564  78.34957  73.55205
      15  75.56274  72.65464         13.68819   8.242480  78.34957  73.55205  72.78268  72.74564  72.77591  71.75723  78.34280  72.56365
      15  75.55597  71.66585         13.69872   8.242480  78.34280  72.56365  72.77591  71.75723  72.76913  70.76806  78.33603  71.57448
      15  75.54919  70.67630         13.70926   8.242480  78.33603  71.57448  72.76913  70.76806  72.76235  69.77813  78.32925  70.58455
      15  75.54241  69.68599         13.71981   8.242480  78.32925  70.58455  72.76235  69.77813  72.75557  68.78744  78.32246  69.59386
      15  75.53562  68.69492         13.73037   8.242480  78.32246  69.59386  72.75557  68.78744  72.74878  67.79599  78.31567  68.60240
      15  75.52883  67.70308         13.74094   8.242480  78.31567  68.60240  72.74878  67.79599  72.74198  66.80377  78.30888  67.61018
      15  75.52203  66.71049         13.75151   8.242480  78.30888  67.61018  72.74198  66.80377  72.73518  65.81079  78.30208  66.61720
      15  75.51523  65.71712         13.76209   8.242480  78.30208  66.61720  72.73518  65.81079  72.72838  64.81704  78.29527  65.62346
      15  75.50842  64.72300         13.77268   8.242480  78.29527  65.62346  72.72838  64.81704  72.72156  63.82253  78.28846  64.62895
      15  75.50160  63.72810         13.78328   8.242480  78.28846  64.62895  72.72156  63.82253  72.71475  62.82726  78.28164  63.63367
      15  75.49478  62.73245         13.79389   8.242480  78.28164  63.63367  72.71475  62.82726  72.70793  61.83122  78.27482  62.63763
      15  75.48796  61.73602         13.80450   8.242480  78.27482  62.63763  72.70793  61.83122  72.70110  60.83441  78.26799  61.64083
      15  75.48113  60.73883         13.81513   8.242480  78.26799  61.64083  72.70110  60.83441  72.69427  59.83684  78.26116  60.64325
      15  75.47430  59.74087         13.82576   8.242480  78.26116  60.64325  72.69427  59.83684  72.68743  58.83849  78.25433  59.64491
      15  75.46746  58.74215         13.83640   8.242480  78.25433  59.64491  72.68743  58.83849  72.68059  57.83938  78.24748  58.64580
      15  75.46061  57.74265         13.84705   8.242480  78.24748  58.64580  72.68059  57.83938  72.67374  56.83950  78.24063  57.64592
      15  75.45376  56.74239         13.85770   8.242480  78.24063  57.64592  72.67374  56.83950  72.66689  55.83886  78.23378  56.64527
      15  75.44690  55.74135         13.86836   8.242480  78.23378  56.64527  72.66689  55.83886  72.66003  54.83744  78.22692  55.64385
      15  75.44004  54.73955         13.87904   8.242480  78.22692  55.64385  72.66003  54.83744  72.65316  53.83525  78.22006  54.64166
      15  75.43318  53.73698         13.88972   8.242480  78.22006  54.64166  72.65316  53.83525  72.64630  52.83229  78.21319  53.63870
      15  75.42631  52.73363         13.90041   8.242480  78.21319  53.63870  72.64630  52.83229  72.63942  51.82856  78.20632  52.63497
      15  75.41943  51.72951         13.91110   8.242480  78.20632  52.63497  72.63942  51.82856  72.63254  50.82405  78.19944  51.63047
      15  75.41255  50.72462         13.92181   8.242480  78.19944  51.63047  72.63254  50.82405  72.62566  49.81877  78.19255  50.62519
      15  75.40566  49.71896         13.93252   8.242480  78.19255  50.62519  72.62566  49.81877  72.61877  48.81272  78.18566  49.61914
      15  75.39877  48.71252         13.94324   8.242480  78.18566  49.61914  72.61877  48.81272  72.61187  47.80590  78.17877  48.61231
      15  75.39187  47.70530         13.95397   8.242480  78.17877  48.61231  72.61187  47.80590  72.60497  46.79830  78.17187  47.60471
      15  75.38496  46.69732         13.96471   8.242480  78.17187  47.60471  72.60497  46.79830  72.59806  45.78992  78.16496  46.59634
      15  75.37806  45.68855         13.97546   8.242480  78.16496  46.59634  72.59806  45.78992  72.59115  44.78077  78.15805  45.58719
      15  75.37114  44.67901         13.98621   8.242480  78.15805  45.58719  72.59115  44.78077  72.58424  43.77084  78.15113  44.57726
      15  75.36422  43.66870         13.99697   8.242480  78.15113  44.57726  72.58424  43.77084  72.57731  42.76014  78.14421  43.56655
      15  75.35730  42.65760         14.00774   8.242480  78.14421  43.56655  72.57731  42.76014  72.57039  41.74865  78.13728  42.55507
      15  75.35037  41.64573         14.01852   8.242480  78.13728  42.55507  72.57039  41.74865  72.56345  40.73639  78.13035  41.54281
      15  75.34343  40.63308         14.02931   8.242480  78.13035  41.54281  72.56345  40.73639  72.55652  39.72335  78.12341  40.52977
      15  75.33649  39.61965         14.04011   8.242480  78.12341  40.52977  72.55652  39.72335  72.54957  38.70953  78.11647  39.51595
      15  75.32955  38.60544         14.05091   8.242480  78.11647  39.51595  72.54957  38.70953  72.54262  37.69493  78.10952  38.50135
      15  75.32259  37.59045         14.06172   8.242480  78.10952  38.50135  72.54262  37.69493  72.53567  36.67955  78.10256  37.48597
      15  75.31564  36.57468         14.07254   8.242480  78.10256  37.48597  72.53567  36.67955  72.52871  35.66339  78.09560  36.46980
      15  75.30868  35.55812         14.08337   8.242480  78.09560  36.46980  72.52871  35.66339  72.52175  34.64644  78.08864  35.45286
      15  75.30171  34.54079         14.09421   8.242480  78.08864  35.45286  72.52175  34.64644  72.51478  33.62872  78.08167  34.43513
      15  75.29473  33.52267         14.10506   8.242480  78.08167  34.43513  72.51478  33.62872  72.50780  32.61021  78.07469  33.41662
      15  75.28776  32.50377         14.11591   8.242480  78.07469  33.41662  72.50780  32.61021  72.50082  31.59091  78.06771  32.39733
      15  75.28077  31.48408         14.12677   8.242480  78.06771  32.39733  72.50082  31.59091  72.49383  30.57084  78.06073  31.37725
      15  75.27378  30.46361         14.13764   8.242480  78.06073  31.37725  72.49383  30.57084  72.48684  29.54997  78.05374  30.35639
      15  75.26679  29.44236         14.14852   8.242480  78.05374  30.35639  72.48684  29.54997  72.47984  28.52832  78.04674  29.33474
      15  75.25979  28.42032         14.15941   8.242480  78.04674  29.33474  72.47984  28.52832  72.47284  27.50589  78.03974  28.31231
      15  75.25278  27.39749         14.17031   8.242480  78.03974  28.31231  72.47284  27.50589  72.46583  26.48267  78.03273  27.28908
      15  75.24577  26.37387         14.18121   8.242480  78.03273  27.28908  72.46583  26.48267  72.45882  25.45866  78.02572  26.26507
      15  75.23876  25.34947         14.19213   8.242480  78.02572  26.26507  72.45882  25.45866  72.45180  24.43386  78.01870  25.24028
      15  75.23174  24.32428         14.20305   8.242480  78.01870  25.24028  72.45180  24.43386  72.44478  23.40828  78.01167  24.21469
      15  75.22471  23.29830         14.21398   8.242480  78.01167  24.21469  72.44478  23.40828  72.43775  22.38190  78.00464  23.18832
      15  75.21768  22.27153         14.22491   8.242480  78.00464  23.18832  72.43775  22.38190  72.43071  21.35474  77.99761  22.16115
      15  75.21064  21.24397         14.23586   8.242480  77.99761  22.16115  72.43071  21.35474  72.42367  20.32678  77.99057  21.13320
      15  75.20360  20.21562         14.24682   8.242480  77.99057  21.13320  72.42367  20.32678  72.41663  19.29804  77.98352  20.10445
      15  75.19655  19.18648         14.25778   8.242480  77.98352  20.10445  72.41663  19.29804  72.40958  18.26850  77.97647  19.07491
      15  75.18950  18.15654         14.26875   8.242480  77.97647  19.07491  72.40958  18.26850  72.40252  17.23817  77.96942  18.04458
      15  75.18244  17.12582         14.27973   8.242480  77.96942  18.04458  72.40252  17.23817  72.39546  16.20705  77.96235  17.01346
      15  75.17537  16.09430         14.29072   8.242480  77.96235  17.01346  72.39546  16.20705  72.38839  15.17513  77.95529  15.98155
      15  75.16830  15.06198         14.30172   8.242480  77.95529  15.98155  72.38839  15.17513  72.38132  14.14242  77.94821  14.94883
      15  75.16123  14.02887         14.31272   8.242480  77.94821  14.94883  72.38132  14.14242  72.37424  13.10891  77.94114  13.91533
      15  75.15415  12.99497         14.32374   8.242480  77.94114  13.91533  72.37424  13.10891  72.36716  12.07461  77.93405  12.88103
      15  75.14706  11.96027         14.33476   8.242480  77.93405  12.88103  72.36716  12.07461  72.36007  11.03952  77.92696  11.84593
      15  75.13997  10.92478         14.34579   8.242480  77.92696  11.84593  72.36007  11.03952  72.35297  10.00362  77.91987  10.81004
      15  75.13287   9.88849         14.35683   8.242480  77.91987  10.81004  72.35297  10.00362  72.34587   8.96693  77.91277   9.77335
      15  75.12577   8.85140         14.36788   8.242480  77.91277   9.77335  72.34587   8.96693  72.33877   7.92945  77.90566   8.73586
      15  75.11866   7.81351         14.37893   8.242480  77.90566   8.73586  72.33877   7.92945  72.33166   6.89116  77.89855   7.69758
      15  75.11155   6.77483         14.39000   8.242480  77.89855   7.69758  72.33166   6.89116  72.32454   5.85208  77.89143   6.65849
      15  75.10443   5.73534         14.40107   8.242480  77.89143   6.65849  72.32454   5.85208  72.31742   4.81219  77.88431   5.61861
      15  75.09730   4.69506         14.41215   8.242480  77.88431   5.61861  72.31742   4.81219  72.31029   3.77151  77.87719   4.57792
      15  75.09017   3.65397         14.42324   8.242480  77.87719   4.57792  72.31029   3.77151  72.30316   2.73002  77.87005   3.53644
      15  75.08304   2.61208         14.43434   8.242480  77.87005   3.53644  72.30316   2.73002  72.29602   1.68773  77.86291   2.49415
      15  75.07589   1.56940         14.44545   8.242480  77.86291   2.49415  72.29602   1.68773  72.28888   0.64464  77.85577   1.45106
      15  75.06875   0.52591         14.45657   8.242480  77.85577   1.45106  72.28888   0.64464  72.28173  -0.39925  77.84862   0.40717
      14  63.49126 127.70925         14.01852   8.840170  66.27865 128.61387  60.72047 127.74942  60.70387 126.80463  66.26205 127.66907
      14  63.47466 126.76409         14.02931   8.840170  66.26205 127.66907  60.70387 126.80463  60.68726 125.85911  66.24544 126.72355
      14  63.45804 125.81821         14.04011   8.840170  66.24544 126.72355  60.68726 125.85911  60.67064 124.91286  66.22882 125.77730
      14  63.44141 124.87160         14.05091   8.840170  66.22882 125.77730  60.67064 124.91286  60.65400 123.96589  66.21218 124.83033
      14  63.42477 123.92425         14.06172   8.840170  66.21218 124.83033  60.65400 123.96589  60.63735 123.01818  66.19553 123.88262
      14  63.40811 122.97618         14.07254   8.840170  66.19553 123.88262  60.63735 123.01818  60.62069 122.06975  66.17887 122.93419
      14  63.39144 122.02739         14.08337   8.840170  66.17887 122.93419  60.62069 122.06975  60.60401 121.12058  66.16219 121.98502
      14  63.37476 121.07786         14.09421   8.840170  66.16219 121.98502  60.60401 121.12058  60.58733 120.17069  66.14551 121.03513
      14  63.35807 120.12760         14.10506   8.840170  66.14551 121.03513  60.58733 120.17069  60.57062 119.22006  66.12880 120.08450
      14  63.34136 119.17660         14.11591   8.840170  66.12880 120.08450  60.57062 119.22006  60.55391 118.26870  66.11209 119.13315
      14  63.32464 118.22488         14.12677   8.840170  66.11209 119.13315  60.55391 118.26870  60.53718 117.31662  66.09536 118.18106
      14  63.30790 117.27243         14.13764   8.840170  66.09536 118.18106  60.53718 117.31662  60.52044 116.36379  66.07862 117.22824
      14  63.29116 116.31924         14.14852   8.840170  66.07862 117.22824  60.52044 116.36379  60.50369 115.41024  66.06187 116.27468
      14  63.27440 115.36532         14.15941   8.840170  66.06187 116.27468  60.50369 115.41024  60.48693 114.45595  66.04511 115.32039
      14  63.25763 114.41066         14.17031   8.840170  66.04511 115.32039  60.48693 114.45595  60.47015 113.50093  66.02833 114.36537
      14  63.24084 113.45527         14.18121   8.840170  66.02833 114.36537  60.47015 113.50093  60.45336 112.54517  66.01154 113.40961
      14  63.22405 112.49914         14.19213   8.840170  66.01154 113.40961  60.45336 112.54517  60.43655 111.58867  65.99473 112.45312
      14  63.20723 111.54228         14.20305   8.840170  65.99473 112.45312  60.43655 111.58867  60.41974 110.63144  65.97792 111.49589
      14  63.19041 110.58468         14.21398   8.840170  65.97792 111.49589  60.41974 110.63144  60.40291 109.67348  65.96109 110.53792
      14  63.17357 109.62635         14.22491   8.840170  65.96109 110.53792  60.40291 109.67348  60.38606 108.71477  65.94424 109.57922
      14  63.15673 108.66728         14.23586   8.840170  65.94424 109.57922  60.38606 108.71477  60.36921 107.75533  65.92739 108.61978
      14  63.13986 107.70746         14.24682   8.840170  65.92739 108.61978  60.36921 107.75533  60.35234 106.79515  65.91052 107.65960
      14  63.12299 106.74692         14.25778   8.840170  65.91052 107.65960  60.35234 106.79515  60.33546 105.83424  65.89364 106.69868
      14  63.10610 105.78563         14.26875   8.840170  65.89364 106.69868  60.33546 105.83424  60.31856 104.87258  65.87674 105.73702
      14  63.08920 104.82360         14.27973   8.840170  65.87674 105.73702  60.31856 104.87258  60.30165 103.91018  65.85983 104.77462
      14  63.07228 103.86083         14.29072   8.840170  65.85983 104.77462  60.30165 103.91018  60.28473 102.94704  65.84291 103.81148
      14  63.05536 102.89732         14.30172   8.840170  65.84291 103.81148  60.28473 102.94704  60.26780 101.98316  65.82598 102.84760
      14  63.03842 101.93307         14.31272   8.840170  65.82598 102.84760  60.26780 101.98316  60.25085 101.01854  65.80903 101.88298
      14  63.02146 100.96808         14.32374   8.840170  65.80903 101.88298  60.25085 101.01854  60.23389 100.05318  65.79207 100.91762
      14  63.00450 100.00234         14.33476   8.840170  65.79207 100.91762  60.23389 100.05318  60.21692  99.08707  65.77510  99.95151
      14  62.98752  99.03587         14.34579   8.840170  65.77510  99.95151  60.21692  99.08707  60.19993  98.12022  65.75811  98.98466
      14  62.97052  98.06864         14.35683   8.840170  65.75811  98.98466  60.19993  98.12022  60.18293  97.15263  65.74111  98.01707
      14  62.95352  97.10068         14.36788   8.840170  65.74111  98.01707  60.18293  97.15263  60.16592  96.18429  65.72410  97.04873
      14  62.93650  96.13197         14.37893   8.840170  65.72410  97.04873  60.16592  96.18429  60.14890  95.21520  65.70708  96.07965
      14  62.91947  95.16251         14.39000   8.840170  65.70708  96.07965  60.14890  95.21520  60.13186  94.24537  65.69004  95.10982
      14  62.90242  94.19231         14.40107   8.840170  65.69004  95.10982  60.13186  94.24537  60.11481  93.27480  65.67299  94.13924
      14  62.88536  93.22136         14.41215   8.840170  65.67299  94.13924  60.11481  93.27480  60.09774  92.30348  65.65592  93.16792
      14  62.86829  92.24966         14.42324   8.840170  65.65592  93.16792  60.09774  92.30348  60.08066  91.33140  65.63884  92.19585
      14  62.85121  91.27722         14.43434   8.840170  65.63884  92.19585  60.08066  91.33140  60.06357  90.35859  65.62175  91.22303
      14  62.83411  90.30402         14.44545   8.840170  65.62175  91.22303  60.06357  90.35859  60.04647  89.38502  65.60465  90.24946
      14  62.81700  89.33008         14.45657   8.840170  65.60465  90.24946  60.04647  89.38502  60.02935  88.41070  65.58753  89.27515
      14  62.79988  88.35539         14.46769   8.840170  65.58753  89.27515  60.02935  88.41070  60.01222  87.43564  65.57040  88.30008
      14  62.78274  87.37995         14.47883   8.840170  65.57040  88.30008  60.01222  87.43564  59.99508  86.45982  65.55326  87.32426
      14  62.76559  86.40376         14.48997   8.840170  65.55326  87.32426  59.99508  86.45982  59.97792  85.48326  65.53610  86.34770
      14  62.74843  85.42682         14.50112   8.840170  65.53610  86.34770  59.97792  85.48326  59.96075  84.50594  65.51893  85.37038
      14  62.73125  84.44912         14.51228   8.840170  65.51893  85.37038  59.96075  84.50594  59.94357  83.52787  65.50175  84.39231
      14  62.71406  83.47068         14.52344   8.840170  65.50175  84.39231  59.94357  83.52787  59.92637  82.54904  65.48455  83.41349
      14  62.69686  82.49148         14.53462   8.840170  65.48455  83.41349  59.92637  82.54904  59.90916  81.56947  65.46734  82.43391
      14  62.67964  81.51152         14.54580   8.840170  65.46734  82.43391  59.90916  81.56947  59.89194  80.58914  65.45012  81.45358
      14  62.66241  80.53081         14.55700   8.840170  65.45012  81.45358  59.89194  80.58914  59.87470  79.60805  65.43288  80.47249
      14  62.64517  79.54935         14.56820   8.840170  65.43288  80.47249  59.87470  79.60805  59.85745  78.62621  65.41563  79.49065
      14  62.62791  78.56714         14.57941   8.840170  65.41563  79.49065  59.85745  78.62621  59.84019  77.64362  65.39837  78.50806
      14  62.61064  77.58416         14.59063   8.840170  65.39837  78.50806  59.84019  77.64362  59.82291  76.66026  65.38109  77.52471
      14  62.59336  76.60043         14.60186   8.840170  65.38109  77.52471  59.82291  76.66026  59.80563  75.67616  65.36381  76.54060
      14  62.57606  75.61595         14.61309   8.840170  65.36381  76.54060  59.80563  75.67616  59.78832  74.69129  65.34650  75.55573
      14  62.55876  74.63070         14.62434   8.840170  65.34650  75.55573  59.78832  74.69129  59.77101  73.70567  65.32919  74.57011
      14  62.54143  73.64470         14.63559   8.840170  65.32919  74.57011  59.77101  73.70567  59.75368  72.71929  65.31186  73.58373
      14  62.52410  72.65794         14.64686   8.840170  65.31186  73.58373  59.75368  72.71929  59.73634  71.73215  65.29452  72.59659
      14  62.50675  71.67042         14.65813   8.840170  65.29452  72.59659  59.73634  71.73215  59.71898  70.74425  65.27716  71.60869
      14  62.48938  70.68214         14.66941   8.840170  65.27716  71.60869  59.71898  70.74425  59.70161  69.75558  65.25979  70.62003
      14  62.47201  69.69310         14.68070   8.840170  65.25979  70.62003  59.70161  69.75558  59.68423  68.76616  65.24241  69.63061
      14  62.45462  68.70329         14.69199   8.840170  65.24241  69.63061  59.68423  68.76616  59.66683  67.77598  65.22501  68.64042
      14  62.43722  67.71273         14.70330   8.840170  65.22501  68.64042  59.66683  67.77598  59.64942  66.78504  65.20760  67.64948
      14  62.41980  66.72140         14.71461   8.840170  65.20760  67.64948  59.64942  66.78504  59.63200  65.79333  65.19018  66.65777
      14  62.40237  65.72931         14.72594   8.840170  65.19018  66.65777  59.63200  65.79333  59.61456  64.80086  65.17274  65.66530
      14  62.38493  64.73646         14.73727   8.840170  65.17274  65.66530  59.61456  64.80086  59.59711  63.80762  65.15529  64.67207
      14  62.36747  63.74285         14.74861   8.840170  65.15529  64.67207  59.59711  63.80762  59.57965  62.81363  65.13783  63.67807
      14  62.35000  62.74847         14.75996   8.840170  65.13783  63.67807  59.57965  62.81363  59.56217  61.81886  65.12035  62.68330
      14  62.33252  61.75332         14.77132   8.840170  65.12035  62.68330  59.56217  61.81886  59.54468  60.82333  65.10286  61.68778
      14  62.31502  60.75741         14.78268   8.840170  65.10286  61.68778  59.54468  60.82333  59.52718  59.82704  65.08536  60.69148
      14  62.29751  59.76073         14.79406   8.840170  65.08536  60.69148  59.52718  59.82704  59.50966  58.82998  65.06784  59.69442
      14  62.27999  58.76328         14.80544   8.840170  65.06784  59.69442  59.50966  58.82998  59.49213  57.83215  65.05031  58.69659
      14  62.26245  57.76507         14.81684   8.840170  65.05031  58.69659  59.49213  57.83215  59.47459  56.83355  65.03277  57.69799
      14  62.24490  56.76609         14.82824   8.840170  65.03277  57.69799  59.47459  56.83355  59.45703  55.83419  65.01521  56.69863
      14  62.22734  55.76634         14.83965   8.840170  65.01521  56.69863  59.45703  55.83419  59.43946  54.83405  64.99764  55.69849
      14  62.20976  54.76582         14.85107   8.840170  64.99764  55.69849  59.43946  54.83405  59.42188  53.83315  64.98006  54.69759
      14  62.19217  53.76453         14.86250   8.840170  64.98006  54.69759  59.42188  53.83315  59.40428  52.83147  64.96246  53.69592
      14  62.17456  52.76247         14.87393   8.840170  64.96246  53.69592  59.40428  52.83147  59.38667  51.82903  64.94485  52.69347
      14  62.15695  51.75964         14.88538   8.840170  64.94485  52.69347  59.38667  51.82903  59.36904  50.82581  64.92722  51.69025
      14  62.13931  50.75604         14.89684   8.840170  64.92722  51.69025  59.36904  50.82581  59.35140  49.82182  64.90958  50.68627
      14  62.12167  49.75166         14.90830   8.840170  64.90958  50.68627  59.35140  49.82182  59.33375  48.81706  64.89193  49.68151
      14  62.10401  48.74652         14.91977   8.840170  64.89193  49.68151  59.33375  48.81706  59.31609  47.81153  64.87427  48.67597
      14  62.08634  47.74060         14.93125   8.840170  64.87427  48.67597  59.31609  47.81153  59.29841  46.80522  64.85659  47.66966
      14  62.06865  46.73390         14.94274   8.840170  64.85659  47.66966  59.29841  46.80522  59.28071  45.79814  64.83889  46.66258
      14  62.05095  45.72643         14.95424   8.840170  64.83889  46.66258  59.28071  45.79814  59.26301  44.79028  64.82119  45.65472
      14  62.03324  44.71819         14.96575   8.840170  64.82119  45.65472  59.26301  44.79028  59.24529  43.78165  64.80347  44.64609
      14  62.01551  43.70916         14.97727   8.840170  64.80347  44.64609  59.24529  43.78165  59.22755  42.77224  64.78573  43.63668
      14  61.99777  42.69937         14.98879   8.840170  64.78573  43.63668  59.22755  42.77224  59.20981  41.76205  64.76799  42.62650
      14  61.98002  41.68879         15.00032   8.840170  64.76799  42.62650  59.20981  41.76205  59.19205  40.75109  64.75023  41.61553
      14  61.96225  40.67744         15.01187   8.840170  64.75023  41.61553  59.19205  40.75109  59.17427  39.73935  64.73245  40.60379
      14  61.94447  39.66531         15.02342   8.840170  64.73245  40.60379  59.17427  39.73935  59.15648  38.72683  64.71466  39.59127
      14  61.92667  38.65240         15.03498   8.840170  64.71466  39.59127  59.15648  38.72683  59.13868  37.71353  64.69686  38.57797
      14  61.90886  37.63871         15.04655   8.840170  64.69686  38.57797  59.13868  37.71353  59.12086  36.69945  64.67904  37.56389
      14  61.89104  36.62424         15.05813   8.840170  64.67904  37.56389  59.12086  36.69945  59.10304  35.68459  64.66122  36.54904
      14  61.87320  35.60899         15.06972   8.840170  64.66122  36.54904  59.10304  35.68459  59.08519  34.66895  64.64337  35.53340
      14  61.85535  34.59296         15.08131   8.840170  64.64337  35.53340  59.08519  34.66895  59.06734  33.65253  64.62552  34.51697
      14  61.83749  33.57615         15.09292   8.840170  64.62552  34.51697  59.06734  33.65253  59.04946  32.63533  64.60764  33.49977
      14  61.81961  32.55856         15.10453   8.840170  64.60764  33.49977  59.04946  32.63533  59.03158  31.61734  64.58976  32.48178
      14  61.80172  31.54018         15.11616   8.840170  64.58976  32.48178  59.03158  31.61734  59.01368  30.59857  64.57186  31.46301
      14  61.78382  30.52102         15.12779   8.840170  64.57186  31.46301  59.01368  30.59857  58.99577  29.57902  64.55395  30.44346
      14  61.76590  29.50107         15.13943   8.840170  64.55395  30.44346  58.99577  29.57902  58.97784  28.55868  64.53602  29.42312
      14  61.74796  28.48034         15.15108   8.840170  64.53602  29.42312  58.97784  28.55868  58.95990  27.53756  64.51808  28.40200
      14  61.73002  27.45882         15.16274   8.840170  64.51808  28.40200  58.95990  27.53756  58.94195  26.51565  64.50013  27.38009
      14  61.71206  26.43652         15.17441   8.840170  64.50013  27.38009  58.94195  26.51565  58.92398  25.49295  64.48216  26.35739
      14  61.69408  25.41343         15.18609   8.840170  64.48216  26.35739  58.92398  25.49295  58.90600  24.46947  64.46418  25.33391
      14  61.67610  24.38955         15.19777   8.840170  64.46418  25.33391  58.90600  24.46947  58.88801  23.44520  64.44619  24.30964
      14  61.65809  23.36489         15.20947   8.840170  64.44619  24.30964  58.88801  23.44520  58.87000  22.42014  64.42818  23.28458
      14  61.64008  22.33944         15.22117   8.840170  64.42818  23.28458  58.87000  22.42014  58.85198  21.39429  64.41016  22.25873
      14  61.62205  21.31320         15.23288   8.840170  64.41016  22.25873  58.85198  21.39429  58.83394  20.36766  64.39212  21.23210
      14  61.60401  20.28616         15.24461   8.840170  64.39212  21.23210  58.83394  20.36766  58.81589  19.34023  64.37407  20.20467
      14  61.58595  19.25834         15.25634   8.840170  64.37407  20.20467  58.81589  19.34023  58.79783  18.31201  64.35601  19.17645
      14  61.56788  18.22973         15.26808   8.840170  64.35601  19.17645  58.79783  18.31201  58.77975  17.28300  64.33793  18.14745
      14  61.54979  17.20032         15.27983   8.840170  64.33793  18.14745  58.77975  17.28300  58.76166  16.25320  64.31984  17.11765
      14  61.53169  16.17013         15.29158   8.840170  64.31984  17.11765  58.76166  16.25320  58.74355  15.22261  64.30173  16.08705
      14  61.51358  15.13914         15.30335   8.840170  64.30173  16.08705  58.74355  15.22261  58.72543  14.19122  64.28361  15.05567
      14  61.49545  14.10736         15.31513   8.840170  64.28361  15.05567  58.72543  14.19122  58.70730  13.15904  64.26548  14.02349
      14  61.47731  13.07478         15.32691   8.840170  64.26548  14.02349  58.70730  13.15904  58.68915  12.12607  64.24733  12.99051
      14  61.45916  12.04141         15.33871   8.840170  64.24733  12.99051  58.68915  12.12607  58.67099  11.09230  64.22917  11.95674
      14  61.44099  11.00724         15.35051   8.840170  64.22917  11.95674  58.67099  11.09230  58.65281  10.05774  64.21099  10.92218
      14  61.42281   9.97228         15.36232   8.840170  64.21099  10.92218  58.65281  10.05774  58.63462   9.02238  64.19280   9.88682
      14  61.40461   8.93652         15.37415   8.840170  64.19280   9.88682  58.63462   9.02238  58.61642   7.98622  64.17460   8.85066
      14  61.38640   7.89996         15.38598   8.840170  64.17460   8.85066  58.61642   7.98622  58.59820   6.94926  64.15638   7.81371
      14  61.36817   6.86261         15.39782   8.840170  64.15638   7.81371  58.59820   6.94926  58.57997   5.91151  64.13815   6.77595
      14  61.34994   5.82446         15.40967   8.840170  64.13815   6.77595  58.57997   5.91151  58.56172   4.87296  64.11990   5.73740
      14  61.33168   4.78551         15.42152   8.840170  64.11990   5.73740  58.56172   4.87296  58.54346   3.83361  64.10164   4.69805
      14  61.31342   3.74576         15.43339   8.840170  64.10164   4.69805  58.54346   3.83361  58.52519   2.79346  64.08337   3.65790
      14  61.29513   2.70521         15.44527   8.840170  64.08337   3.65790  58.52519   2.79346  58.50690   1.75251  64.06508   2.61695
      14  61.27684   1.66386         15.45715   8.840170  64.06508   2.61695  58.50690   1.75251  58.48860   0.71076  64.04678   1.57520
      14  61.25853   0.62170         15.46905   8.840170  64.04678   1.57520  58.48860   0.71076  58.47028  -0.33179  64.02846   0.53265
      13  48.96298 127.76690         15.06972   9.519680  51.74879 128.70225  46.20125 127.77195  46.17717 126.83156  51.72470 127.76186
      13  48.93889 126.82615         15.08131   9.519680  51.72470 127.76186  46.17717 126.83156  46.15307 125.89044  51.70060 126.82074
      13  48.91477 125.88467         15.09292   9.519680  51.70060 126.82074  46.15307 125.89044  46.12895 124.94861  51.67648 125.87890
      13  48.89065 124.94247         15.10453   9.519680  51.67648 125.87890  46.12895 124.94861  46.10481 124.00604  51.65235 124.93634
      13  48.86650 123.99955         15.11616   9.519680  51.65235 124.93634  46.10481 124.00604  46.08065 123.06275  51.62819 123.99305
      13  48.84233 123.05590         15.12779   9.519680  51.62819 123.99305  46.08065 123.06275  46.05648 122.11874  51.60401 123.04904
      13  48.81815 122.11152         15.13943   9.519680  51.60401 123.04904  46.05648 122.11874  46.03228 121.17400  51.57982 122.10430
      13  48.79394 121.16642         15.15108   9.519680  51.57982 122.10430  46.03228 121.17400  46.00807 120.22853  51.55561 121.15883
      13  48.76972 120.22058         15.16274   9.519680  51.55561 121.15883  46.00807 120.22853  45.98384 119.28234  51.53137 120.21264
      13  48.74548 119.27402         15.17441   9.519680  51.53137 120.21264  45.98384 119.28234  45.95959 118.33541  51.50712 119.26571
      13  48.72122 118.32674         15.18609   9.519680  51.50712 119.26571  45.95959 118.33541  45.93532 117.38776  51.48286 118.31806
      13  48.69694 117.37872         15.19777   9.519680  51.48286 118.31806  45.93532 117.38776  45.91103 116.43938  51.45857 117.36968
      13  48.67265 116.42997         15.20947   9.519680  51.45857 117.36968  45.91103 116.43938  45.88673 115.49027  51.43426 116.42057
      13  48.64833 115.48050         15.22117   9.519680  51.43426 116.42057  45.88673 115.49027  45.86240 114.54043  51.40994 115.47073
      13  48.62400 114.53029         15.23288   9.519680  51.40994 115.47073  45.86240 114.54043  45.83806 113.58986  51.38559 114.52016
      13  48.59964 113.57935         15.24461   9.519680  51.38559 114.52016  45.83806 113.58986  45.81369 112.63855  51.36123 113.56885
      13  48.57527 112.62768         15.25634   9.519680  51.36123 113.56885  45.81369 112.63855  45.78931 111.68652  51.33685 112.61682
      13  48.55088 111.67528         15.26808   9.519680  51.33685 112.61682  45.78931 111.68652  45.76491 110.73375  51.31245 111.66405
      13  48.52647 110.72215         15.27983   9.519680  51.31245 111.66405  45.76491 110.73375  45.74050 109.78025  51.28803 110.71055
      13  48.50205 109.76828         15.29158   9.519680  51.28803 110.71055  45.74050 109.78025  45.71606 108.82601  51.26360 109.75631
      13  48.47760 108.81368         15.30335   9.519680  51.26360 109.75631  45.71606 108.82601  45.69160 107.87104  51.23914 108.80134
      13  48.45313 107.85834         15.31513   9.519680  51.23914 108.80134  45.69160 107.87104  45.66713 106.91534  51.21466 107.84564
      13  48.42865 106.90227         15.32691   9.519680  51.21466 107.84564  45.66713 106.91534  45.64263 105.95890  51.19017 106.88920
      13  48.40415 105.94546         15.33871   9.519680  51.19017 106.88920  45.64263 105.95890  45.61812 105.00172  51.16566 105.93202
      13  48.37962 104.98791         15.35051   9.519680  51.16566 105.93202  45.61812 105.00172  45.59359 104.04381  51.14113 104.97411
      13  48.35508 104.02963         15.36232   9.519680  51.14113 104.97411  45.59359 104.04381  45.56904 103.08516  51.11658 104.01546
      13  48.33052 103.07062         15.37415   9.519680  51.11658 104.01546  45.56904 103.08516  45.54447 102.12577  51.09201 103.05607
      13  48.30594 102.11086         15.38598   9.519680  51.09201 103.05607  45.54447 102.12577  45.51988 101.16565  51.06742 102.09594
      13  48.28135 101.15036         15.39782   9.519680  51.06742 102.09594  45.51988 101.16565  45.49527 100.20478  51.04281 101.13508
      13  48.25673 100.18913         15.40967   9.519680  51.04281 101.13508  45.49527 100.20478  45.47065  99.24318  51.01819 100.17348
      13  48.23210  99.22716         15.42152   9.519680  51.01819 100.17348  45.47065  99.24318  45.44600  98.28083  50.99354  99.21113
      13  48.20744  98.26444         15.43339   9.519680  50.99354  99.21113  45.44600  98.28083  45.42134  97.31775  50.96888  98.24805
      13  48.18277  97.30099         15.44527   9.519680  50.96888  98.24805  45.42134  97.31775  45.39666  96.35392  50.94419  97.28422
      13  48.15807  96.33679         15.45715   9.519680  50.94419  97.28422  45.39666  96.35392  45.37196  95.38936  50.91949  96.31966
      13  48.13336  95.37185         15.46905   9.519680  50.91949  96.31966  45.37196  95.38936  45.34723  94.42405  50.89477  95.35435
      13  48.10863  94.40617         15.48095   9.519680  50.89477  95.35435  45.34723  94.42405  45.32249  93.45800  50.87003  94.38829
      13  48.08388  93.43975         15.49286   9.519680  50.87003  94.38829  45.32249  93.45800  45.29774  92.49120  50.84527  93.42150
      13  48.05912  92.47258         15.50479   9.519680  50.84527  93.42150  45.29774  92.49120  45.27296  91.52366  50.82049  92.45396
      13  48.03433  91.50467         15.51672   9.519680  50.82049  92.45396  45.27296  91.52366  45.24816  90.55538  50.79570  91.48567
      13  48.00952  90.53601         15.52866   9.519680  50.79570  91.48567  45.24816  90.55538  45.22334  89.58635  50.77088  90.51664
      13  47.98470  89.56661         15.54061   9.519680  50.77088  90.51664  45.22334  89.58635  45.19851  88.61657  50.74605  89.54687
      13  47.95985  88.59646         15.55257   9.519680  50.74605  89.54687  45.19851  88.61657  45.17365  87.64605  50.72119  88.57635
      13  47.93499  87.62556         15.56454   9.519680  50.72119  88.57635  45.17365  87.64605  45.14878  86.67478  50.69632  87.60508
      13  47.91010  86.65392         15.57651   9.519680  50.69632  87.60508  45.14878  86.67478  45.12389  85.70277  50.67143  86.63306
      13  47.88520  85.68153         15.58850   9.519680  50.67143  86.63306  45.12389  85.70277  45.09898  84.73000  50.64651  85.66030
      13  47.86028  84.70840         15.60049   9.519680  50.64651  85.66030  45.09898  84.73000  45.07405  83.75649  50.62158  84.68679
      13  47.83534  83.73451         15.61250   9.519680  50.62158  84.68679  45.07405  83.75649  45.04910  82.78223  50.59663  83.71253
      13  47.81038  82.75987         15.62451   9.519680  50.59663  83.71253  45.04910  82.78223  45.02413  81.80722  50.57166  82.73752
      13  47.78540  81.78449         15.63654   9.519680  50.57166  82.73752  45.02413  81.80722  44.99914  80.83146  50.54668  81.76175
      13  47.76040  80.80835         15.64857   9.519680  50.54668  81.76175  44.99914  80.83146  44.97413  79.85494  50.52167  80.78524
      13  47.73539  79.83146         15.66061   9.519680  50.52167  80.78524  44.97413  79.85494  44.94910  78.87768  50.49664  79.80798
      13  47.71035  78.85382         15.67266   9.519680  50.49664  79.80798  44.94910  78.87768  44.92406  77.89967  50.47159  78.82996
      13  47.68529  77.87543         15.68472   9.519680  50.47159  78.82996  44.92406  77.89967  44.89899  76.92090  50.44653  77.85120
      13  47.66022  76.89629         15.69679   9.519680  50.44653  77.85120  44.89899  76.92090  44.87391  75.94138  50.42144  76.87167
      13  47.63512  75.91639         15.70887   9.519680  50.42144  76.87167  44.87391  75.94138  44.84880  74.96110  50.39634  75.89140
      13  47.61001  74.93573         15.72096   9.519680  50.39634  75.89140  44.84880  74.96110  44.82368  73.98007  50.37122  74.91037
      13  47.58488  73.95433         15.73306   9.519680  50.37122  74.91037  44.82368  73.98007  44.79854  72.99829  50.34607  73.92858
      13  47.55972  72.97217         15.74517   9.519680  50.34607  73.92858  44.79854  72.99829  44.77337  72.01575  50.32091  72.94604
      13  47.53455  71.98925         15.75728   9.519680  50.32091  72.94604  44.77337  72.01575  44.74819  71.03245  50.29573  71.96275
      13  47.50936  71.00557         15.76941   9.519680  50.29573  71.96275  44.74819  71.03245  44.72299  70.04840  50.27053  70.97870
      13  47.48415  70.02114         15.78154   9.519680  50.27053  70.97870  44.72299  70.04840  44.69777  69.06359  50.24531  69.99389
      13  47.45892  69.03595         15.79369   9.519680  50.24531  69.99389  44.69777  69.06359  44.67253  68.07802  50.22007  69.00832
      13  47.43367  68.05001         15.80584   9.519680  50.22007  69.00832  44.67253  68.07802  44.64727  67.09169  50.19481  68.02199
      13  47.40840  67.06330         15.81800   9.519680  50.19481  68.02199  44.64727  67.09169  44.62199  66.10461  50.16953  67.03491
      13  47.38311  66.07583         15.83018   9.519680  50.16953  67.03491  44.62199  66.10461  44.59670  65.11676  50.14423  66.04706
      13  47.35781  65.08761         15.84236   9.519680  50.14423  66.04706  44.59670  65.11676  44.57138  64.12816  50.11892  65.05846
      13  47.33248  64.09862         15.85455   9.519680  50.11892  65.05846  44.57138  64.12816  44.54604  63.13879  50.09358  64.06909
      13  47.30713  63.10888         15.86675   9.519680  50.09358  64.06909  44.54604  63.13879  44.52069  62.14866  50.06822  63.07896
      13  47.28177  62.11837         15.87896   9.519680  50.06822  63.07896  44.52069  62.14866  44.49531  61.15778  50.04285  62.08807
      13  47.25638  61.12710         15.89118   9.519680  50.04285  62.08807  44.49531  61.15778  44.46991  60.16612  50.01745  61.09642
      13  47.23098  60.13507         15.90341   9.519680  50.01745  61.09642  44.46991  60.16612  44.44450  59.17371  49.99204  60.10401
      13  47.20555  59.14227         15.91565   9.519680  49.99204  60.10401  44.44450  59.17371  44.41906  58.18053  49.96660  59.11083
      13  47.18011  58.14871         15.92789   9.519680  49.96660  59.11083  44.41906  58.18053  44.39361  57.18659  49.94115  58.11689
      13  47.15464  57.15438         15.94015   9.519680  49.94115  58.11689  44.39361  57.18659  44.36814  56.19188  49.91567  57.12218
      13  47.12916  56.15929         15.95242   9.519680  49.91567  57.12218  44.36814  56.19188  44.34264  55.19641  49.89018  56.12671
      13  47.10366  55.16344         15.96469   9.519680  49.89018  56.12671  44.34264  55.19641  44.31713  54.20017  49.86467  55.13047
      13  47.07813  54.16681         15.97698   9.519680  49.86467  55.13047  44.31713  54.20017  44.29160  53.20316  49.83913  54.13346
      13  47.05259  53.16943         15.98927   9.519680  49.83913  54.13346  44.29160  53.20316  44.26605  52.20539  49.81358  53.13569
      13  47.02703  52.17127         16.00158   9.519680  49.81358  53.13569  44.26605  52.20539  44.24047  51.20685  49.78801  52.13715
      13  47.00145  51.17234         16.01389   9.519680  49.78801  52.13715  44.24047  51.20685  44.21488  50.20754  49.76242  51.13784
      13  46.97584  50.17265         16.02621   9.519680  49.76242  51.13784  44.21488  50.20754  44.18927  49.20746  49.73681  50.13776
      13  46.95022  49.17219         16.03855   9.519680  49.73681  50.13776  44.18927  49.20746  44.16364  48.20661  49.71118  49.13691
      13  46.92458  48.17095         16.05089   9.519680  49.71118  49.13691  44.16364  48.20661  44.13799  47.20500  49.68553  48.13529
      13  46.89892  47.16895         16.06324   9.519680  49.68553  48.13529  44.13799  47.20500  44.11232  46.20261  49.65986  47.13291
      13  46.87324  46.16618         16.07560   9.519680  49.65986  47.13291  44.11232  46.20261  44.08663  45.19945  49.63417  46.12975
      13  46.84754  45.16263         16.08797   9.519680  49.63417  46.12975  44.08663  45.19945  44.06092  44.19552  49.60846  45.12581
      13  46.82182  44.15831         16.10035   9.519680  49.60846  45.12581  44.06092  44.19552  44.03519  43.19081  49.58273  44.12111
      13  46.79608  43.15322         16.11274   9.519680  49.58273  44.12111  44.03519  43.19081  44.00944  42.18533  49.55698  43.11563
      13  46.77032  42.14736         16.12514   9.519680  49.55698  43.11563  44.00944  42.18533  43.98367  41.17908  49.53121  42.10938
      13  46.74454  41.14072         16.13755   9.519680  49.53121  42.10938  43.98367  41.17908  43.95788  40.17206  49.50542  41.10235
      13  46.71874  40.13331         16.14997   9.519680  49.50542  41.10235  43.95788  40.17206  43.93207  39.16426  49.47961  40.09455
      13  46.69293  39.12512         16.16240   9.519680  49.47961  40.09455  43.93207  39.16426  43.90624  38.15568  49.45378  39.08598
      13  46.66709  38.11615         16.17483   9.519680  49.45378  39.08598  43.90624  38.15568  43.88039  37.14633  49.42793  38.07663
      13  46.64123  37.10641         16.18728   9.519680  49.42793  38.07663  43.88039  37.14633  43.85452  36.13620  49.40206  37.06650
      13  46.61535  36.09589         16.19974   9.519680  49.40206  37.06650  43.85452  36.13620  43.82864  35.12529  49.37617  36.05559
      13  46.58945  35.08460         16.21220   9.519680  49.37617  36.05559  43.82864  35.12529  43.80273  34.11361  49.35027  35.04391
      13  46.56353  34.07253         16.22468   9.519680  49.35027  35.04391  43.80273  34.11361  43.77680  33.10114  49.32434  34.03144
      13  46.53759  33.05967         16.23716   9.519680  49.32434  34.03144  43.77680  33.10114  43.75085  32.08790  49.29839  33.01820
      13  46.51164  32.04604         16.24966   9.519680  49.29839  33.01820  43.75085  32.08790  43.72488  31.07388  49.27242  32.00418
      13  46.48566  31.03163         16.26216   9.519680  49.27242  32.00418  43.72488  31.07388  43.69889  30.05908  49.24643  30.98938
      13  46.45966  30.01644         16.27468   9.519680  49.24643  30.98938  43.69889  30.05908  43.67289  29.04350  49.22042  29.97379
      13  46.43364  29.00046         16.28720   9.519680  49.22042  29.97379  43.67289  29.04350  43.64686  28.02713  49.19439  28.95743
      13  46.40760  27.98371         16.29973   9.519680  49.19439  28.95743  43.64686  28.02713  43.62081  27.00999  49.16835  27.94028
      13  46.38154  26.96617         16.31228   9.519680  49.16835  27.94028  43.62081  27.00999  43.59474  25.99206  49.14228  26.92235
      13  46.35547  25.94785         16.32483   9.519680  49.14228  26.92235  43.59474  25.99206  43.56865  24.97334  49.11619  25.90364
      13  46.32937  24.92874         16.33739   9.519680  49.11619  25.90364  43.56865  24.97334  43.54254  23.95385  49.09008  24.88415
      13  46.30325  23.90886         16.34996   9.519680  49.09008  24.88415  43.54254  23.95385  43.51642  22.93357  49.06395  23.86386
      13  46.27711  22.88818         16.36255   9.519680  49.06395  23.86386  43.51642  22.93357  43.49027  21.91250  49.03780  22.84280
      13  46.25095  21.86672         16.37514   9.519680  49.03780  22.84280  43.49027  21.91250  43.46410  20.89065  49.01163  21.82095
      13  46.22477  20.84448         16.38774   9.519680  49.01163  21.82095  43.46410  20.89065  43.43791  19.86801  48.98545  20.79831
      13  46.19857  19.82145         16.40035   9.519680  48.98545  20.79831  43.43791  19.86801  43.41170  18.84458  48.95924  19.77488
      13  46.17235  18.79763         16.41297   9.519680  48.95924  19.77488  43.41170  18.84458  43.38547  17.82037  48.93301  18.75067
      13  46.14611  17.77302         16.42560   9.519680  48.93301  18.75067  43.38547  17.82037  43.35922  16.79537  48.90676  17.72567
      13  46.11985  16.74762         16.43824   9.519680  48.90676  17.72567  43.35922  16.79537  43.33295  15.76958  48.88049  16.69988
      13  46.09357  15.72144         16.45089   9.519680  48.88049  16.69988  43.33295  15.76958  43.30666  14.74300  48.85420  15.67330
      13  46.06727  14.69447         16.46355   9.519680  48.85420  15.67330  43.30666  14.74300  43.28035  13.71563  48.82789  14.64593
      13  46.04095  13.66670         16.47622   9.519680  48.82789  14.64593  43.28035  13.71563  43.25402  12.68747  48.80156  13.61777
      13  46.01461  12.63815         16.48890   9.519680  48.80156  13.61777  43.25402  12.68747  43.22767  11.65852  48.77521  12.58882
      13  45.98825  11.60880         16.50159   9.519680  48.77521  12.58882  43.22767  11.65852  43.20130  10.62878  48.74884  11.55908
      13  45.96187  10.57866         16.51428   9.519680  48.74884  11.55908  43.20130  10.62878  43.17491   9.59824  48.72244  10.52854
      13  45.93547   9.54773         16.52699   9.519680  48.72244  10.52854  43.17491   9.59824  43.14850   8.56692  48.69603   9.49721
      13  45.90905   8.51600         16.53971   9.519680  48.69603   9.49721  43.14850   8.56692  43.12206   7.53479  48.66960   8.46509
      13  45.88261   7.48349         16.55244   9.519680  48.66960   8.46509  43.12206   7.53479  43.09561   6.50188  48.64315   7.43218
      13  45.85614   6.45017         16.56518   9.519680  48.64315   7.43218  43.09561   6.50188  43.06914   5.46817  48.61668   6.39847
      13  45.82966   5.41606         16.57792   9.519680  48.61668   6.39847  43.06914   5.46817  43.04265   4.43366  48.59018   5.36396
      13  45.80316   4.38116         16.59068   9.519680  48.59018   5.36396  43.04265   4.43366  43.01613   3.39836  48.56367   4.32866
      13  45.77663   3.34546         16.60345   9.519680  48.56367   4.32866  43.01613   3.39836  42.98960   2.36226  48.53714   3.29256
      13  45.75009   2.30896         16.61622   9.519680  48.53714   3.29256  42.98960   2.36226  42.96304   1.32536  48.51058   2.25566
      13  45.72353   1.27167         16.62901   9.519680  48.51058   2.25566  42.96304   1.32536  42.93647   0.28767  48.48401   1.21797
      13  45.69694   0.23357         16.64181   9.519680  48.48401   1.21797  42.93647   0.28767  42.90988  -0.75082  48.45741   0.17948
      12  32.15860 127.10812         16.31228  10.281000  34.94323 128.08745  29.40854 127.08352  29.37397 126.12879  34.90865 127.13272
      12  32.12401 126.15302         16.32483  10.281000  34.90865 127.13272  29.37397 126.12879  29.33937 125.17333  34.87405 126.17726
      12  32.08940 125.19719         16.33739  10.281000  34.87405 126.17726  29.33937 125.17333  29.30474 124.21713  34.83943 125.22106
      12  32.05475 124.24063         16.34996  10.281000  34.83943 125.22106  29.30474 124.21713  29.27008 123.26020  34.80477 124.26412
      12  32.02009 123.28332         16.36255  10.281000  34.80477 124.26412  29.27008 123.26020  29.23540 122.30253  34.77009 123.30645
      12  31.98539 122.32529         16.37514  10.281000  34.77009 123.30645  29.23540 122.30253  29.20070 121.34412  34.73538 122.34805
      12  31.95067 121.36651         16.38774  10.281000  34.73538 122.34805  29.20070 121.34412  29.16596 120.38497  34.70065 121.38890
      12  31.91592 120.40699         16.40035  10.281000  34.70065 121.38890  29.16596 120.38497  29.13120 119.42509  34.66589 120.42902
      12  31.88115 119.44674         16.41297  10.281000  34.66589 120.42902  29.13120 119.42509  29.09641 118.46447  34.63110 119.46839
      12  31.84635 118.48575         16.42560  10.281000  34.63110 119.46839  29.09641 118.46447  29.06160 117.50311  34.59628 118.50703
      12  31.81152 117.52402         16.43824  10.281000  34.59628 118.50703  29.06160 117.50311  29.02675 116.54101  34.56144 117.54493
      12  31.77666 116.56155         16.45089  10.281000  34.56144 117.54493  29.02675 116.54101  28.99189 115.57816  34.52657 116.58209
      12  31.74178 115.59834         16.46355  10.281000  34.52657 116.58209  28.99189 115.57816  28.95699 114.61458  34.49168 115.61851
      12  31.70687 114.63438         16.47622  10.281000  34.49168 115.61851  28.95699 114.61458  28.92207 113.65026  34.45676 114.65419
      12  31.67194 113.66969         16.48890  10.281000  34.45676 114.65419  28.92207 113.65026  28.88712 112.68519  34.42181 113.68912
      12  31.63698 112.70425         16.50159  10.281000  34.42181 113.68912  28.88712 112.68519  28.85214 111.71938  34.38683 112.72331
      12  31.60199 111.73807         16.51428  10.281000  34.38683 112.72331  28.85214 111.71938  28.81714 110.75283  34.35183 111.75676
      12  31.56697 110.77115         16.52699  10.281000  34.35183 111.75676  28.81714 110.75283  28.78211 109.78554  34.31680 110.78946
      12  31.53193 109.80348         16.53971  10.281000  34.31680 110.78946  28.78211 109.78554  28.74705 108.81750  34.28174 109.82142
      12  31.49686 108.83507         16.55244  10.281000  34.28174 109.82142  28.74705 108.81750  28.71197 107.84871  34.24666 108.85264
      12  31.46176 107.86591         16.56518  10.281000  34.24666 108.85264  28.71197 107.84871  28.67686 106.87918  34.21155 107.88311
      12  31.42664 106.89601         16.57792  10.281000  34.21155 107.88311  28.67686 106.87918  28.64172 105.90890  34.17641 106.91283
      12  31.39148 105.92536         16.59068  10.281000  34.17641 106.91283  28.64172 105.90890  28.60656 104.93788  34.14124 105.94181
      12  31.35631 104.95396         16.60345  10.281000  34.14124 105.94181  28.60656 104.93788  28.57137 103.96611  34.10605 104.97004
      12  31.32110 103.98182         16.61622  10.281000  34.10605 104.97004  28.57137 103.96611  28.53615 102.99359  34.07083 103.99752
      12  31.28587 103.00892         16.62901  10.281000  34.07083 103.99752  28.53615 102.99359  28.50090 102.02033  34.03559 103.02425
      12  31.25061 102.03528         16.64181  10.281000  34.03559 103.02425  28.50090 102.02033  28.46563 101.04631  34.00032 102.05024
      12  31.21532 101.06089         16.65461  10.281000  34.00032 102.05024  28.46563 101.04631  28.43033 100.07155  33.96502 101.07547
      12  31.18001 100.08575         16.66743  10.281000  33.96502 101.07547  28.43033 100.07155  28.39500  99.09603  33.92969 100.09996
      12  31.14467  99.10986         16.68026  10.281000  33.92969 100.09996  28.39500  99.09603  28.35965  98.11977  33.89433  99.12369
      12  31.10930  98.13322         16.69309  10.281000  33.89433  99.12369  28.35965  98.11977  28.32426  97.14275  33.85895  98.14668
      12  31.07390  97.15583         16.70594  10.281000  33.85895  98.14668  28.32426  97.14275  28.28886  96.16498  33.82354  97.16891
      12  31.03848  96.17768         16.71879  10.281000  33.82354  97.16891  28.28886  96.16498  28.25342  95.18646  33.78811  96.19039
      12  31.00303  95.19879         16.73166  10.281000  33.78811  96.19039  28.25342  95.18646  28.21796  94.20718  33.75264  95.21111
      12  30.96755  94.21913         16.74453  10.281000  33.75264  95.21111  28.21796  94.20718  28.18247  93.22716  33.71715  94.23108
      12  30.93205  93.23873         16.75742  10.281000  33.71715  94.23108  28.18247  93.22716  28.14695  92.24638  33.68163  93.25030
      12  30.89652  92.25757         16.77031  10.281000  33.68163  93.25030  28.14695  92.24638  28.11140  91.26484  33.64609  92.26877
      12  30.86096  91.27566         16.78322  10.281000  33.64609  92.26877  28.11140  91.26484  28.07583  90.28255  33.61052  91.28647
      12  30.82537  90.29299         16.79613  10.281000  33.61052  91.28647  28.07583  90.28255  28.04023  89.29950  33.57492  90.30343
      12  30.78976  89.30956         16.80906  10.281000  33.57492  90.30343  28.04023  89.29950  28.00460  88.31569  33.53929  89.31962
      12  30.75412  88.32538         16.82199  10.281000  33.53929  89.31962  28.00460  88.31569  27.96895  87.33113  33.50363  88.33506
      12  30.71845  87.34044         16.83494  10.281000  33.50363  88.33506  27.96895  87.33113  27.93326  86.34581  33.46795  87.34974
      12  30.68275  86.35474         16.84789  10.281000  33.46795  87.34974  27.93326  86.34581  27.89755  85.35974  33.43224  86.36366
      12  30.64703  85.36828         16.86086  10.281000  33.43224  86.36366  27.89755  85.35974  27.86182  84.37290  33.39650  85.37683
      12  30.61128  84.38107         16.87383  10.281000  33.39650  85.37683  27.86182  84.37290  27.82605  83.38530  33.36074  84.38923
      12  30.57550  83.39309         16.88682  10.281000  33.36074  84.38923  27.82605  83.38530  27.79026  82.39695  33.32495  83.40088
      12  30.53969  82.40435         16.89981  10.281000  33.32495  83.40088  27.79026  82.39695  27.75444  81.40783  33.28913  82.41176
      12  30.50386  81.41486         16.91282  10.281000  33.28913  82.41176  27.75444  81.40783  27.71859  80.41796  33.25328  81.42188
      12  30.46800  80.42460         16.92583  10.281000  33.25328  81.42188  27.71859  80.41796  27.68272  79.42732  33.21740  80.43124
      12  30.43211  79.43358         16.93886  10.281000  33.21740  80.43124  27.68272  79.42732  27.64681  78.43591  33.18150  79.43984
      12  30.39619  78.44180         16.95189  10.281000  33.18150  79.43984  27.64681  78.43591  27.61088  77.44375  33.14557  78.44768
      12  30.36025  77.44925         16.96494  10.281000  33.14557  78.44768  27.61088  77.44375  27.57493  76.45082  33.10961  77.45475
      12  30.32428  76.45594         16.97799  10.281000  33.10961  77.45475  27.57493  76.45082  27.53894  75.45713  33.07363  76.46106
      12  30.28828  75.46187         16.99106  10.281000  33.07363  76.46106  27.53894  75.45713  27.50293  74.46267  33.03761  75.46660
      12  30.25225  74.46703         17.00413  10.281000  33.03761  75.46660  27.50293  74.46267  27.46689  73.46745  33.00157  74.47138
      12  30.21619  73.47142         17.01722  10.281000  33.00157  74.47138  27.46689  73.46745  27.43082  72.47147  32.96550  73.47539
      12  30.18011  72.47505         17.03031  10.281000  32.96550  73.47539  27.43082  72.47147  27.39472  71.47471  32.92941  72.47864
      12  30.14400  71.47791         17.04342  10.281000  32.92941  72.47864  27.39472  71.47471  27.35860  70.47719  32.89328  71.48112
      12  30.10786  70.48001         17.05653  10.281000  32.89328  71.48112  27.35860  70.47719  27.32244  69.47890  32.85713  70.48283
      12  30.07170  69.48134         17.06966  10.281000  32.85713  70.48283  27.32244  69.47890  27.28626  68.47984  32.82095  69.48377
      12  30.03550  68.48190         17.08280  10.281000  32.82095  69.48377  27.28626  68.47984  27.25006  67.48002  32.78474  68.48395
      12  29.99928  67.48169         17.09594  10.281000  32.78474  68.48395  27.25006  67.48002  27.21382  66.47942  32.74851  67.48335
      12  29.96303  66.48070         17.10910  10.281000  32.74851  67.48335  27.21382  66.47942  27.17756  65.47806  32.71224  66.48199
      12  29.92675  65.47895         17.12226  10.281000  32.71224  66.48199  27.17756  65.47806  27.14127  64.47592  32.67595  65.47985
      12  29.89045  64.47643         17.13544  10.281000  32.67595  65.47985  27.14127  64.47592  27.10495  63.47302  32.63963  64.47694
      12  29.85412  63.47314         17.14863  10.281000  32.63963  64.47694  27.10495  63.47302  27.06860  62.46934  32.60329  63.47326
      12  29.81775  62.46908         17.16182  10.281000  32.60329  63.47326  27.06860  62.46934  27.03222  61.46489  32.56691  62.46881
      12  29.78137  61.46424         17.17503  10.281000  32.56691  62.46881  27.03222  61.46489  26.99582  60.45966  32.53051  61.46359
      12  29.74495  60.45863         17.18824  10.281000  32.53051  61.46359  26.99582  60.45966  26.95939  59.45367  32.49408  60.45759
      12  29.70850  59.45224         17.20147  10.281000  32.49408  60.45759  26.95939  59.45367  26.92293  58.44689  32.45762  59.45082
      12  29.67203  58.44508         17.21471  10.281000  32.45762  59.45082  26.92293  58.44689  26.88644  57.43935  32.42113  58.44327
      12  29.63553  57.43715         17.22796  10.281000  32.42113  58.44327  26.88644  57.43935  26.84993  56.43103  32.38461  57.43495
      12  29.59900  56.42844         17.24121  10.281000  32.38461  57.43495  26.84993  56.43103  26.81338  55.42193  32.34807  56.42586
      12  29.56244  55.41895         17.25448  10.281000  32.34807  56.42586  26.81338  55.42193  26.77681  54.41205  32.31150  55.41598
      12  29.52586  54.40869         17.26776  10.281000  32.31150  55.41598  26.77681  54.41205  26.74021  53.40140  32.27490  54.40533
      12  29.48924  53.39765         17.28105  10.281000  32.27490  54.40533  26.74021  53.40140  26.70358  52.38997  32.23827  53.39390
      12  29.45260  52.38583         17.29434  10.281000  32.23827  53.39390  26.70358  52.38997  26.66693  51.37777  32.20161  52.38169
      12  29.41593  51.37324         17.30765  10.281000  32.20161  52.38169  26.66693  51.37777  26.63024  50.36478  32.16493  51.36871
      12  29.37923  50.35986         17.32097  10.281000  32.16493  51.36871  26.63024  50.36478  26.59353  49.35101  32.12822  50.35494
      12  29.34250  49.34571         17.33430  10.281000  32.12822  50.35494  26.59353  49.35101  26.55679  48.33647  32.09148  49.34040
      12  29.30575  48.33077         17.34764  10.281000  32.09148  49.34040  26.55679  48.33647  26.52002  47.32114  32.05471  48.32507
      12  29.26897  47.31505         17.36099  10.281000  32.05471  48.32507  26.52002  47.32114  26.48322  46.30503  32.01791  47.30896
      12  29.23215  46.29855         17.37435  10.281000  32.01791  47.30896  26.48322  46.30503  26.44640  45.28814  31.98108  46.29207
      12  29.19531  45.28127         17.38772  10.281000  31.98108  46.29207  26.44640  45.28814  26.40954  44.27047  31.94423  45.27440
      12  29.15845  44.26321         17.40110  10.281000  31.94423  45.27440  26.40954  44.27047  26.37266  43.25202  31.90735  44.25594
      12  29.12155  43.24436         17.41449  10.281000  31.90735  44.25594  26.37266  43.25202  26.33575  42.23278  31.87044  43.23670
      12  29.08462  42.22473         17.42789  10.281000  31.87044  43.23670  26.33575  42.23278  26.29881  41.21275  31.83350  42.21668
      12  29.04767  41.20431         17.44130  10.281000  31.83350  42.21668  26.29881  41.21275  26.26184  40.19195  31.79653  41.19587
      12  29.01069  40.18311         17.45472  10.281000  31.79653  41.19587  26.26184  40.19195  26.22485  39.17035  31.75953  40.17428
      12  28.97368  39.16113         17.46816  10.281000  31.75953  40.17428  26.22485  39.17035  26.18782  38.14797  31.72251  39.15190
      12  28.93664  38.13835         17.48160  10.281000  31.72251  39.15190  26.18782  38.14797  26.15077  37.12480  31.68546  38.12873
      12  28.89957  37.11479         17.49505  10.281000  31.68546  38.12873  26.15077  37.12480  26.11369  36.10085  31.64838  37.10478
      12  28.86248  36.09044         17.50851  10.281000  31.64838  37.10478  26.11369  36.10085  26.07658  35.07611  31.61127  36.08004
      12  28.82535  35.06531         17.52199  10.281000  31.61127  36.08004  26.07658  35.07611  26.03944  34.05058  31.57413  35.05450
      12  28.78820  34.03938         17.53547  10.281000  31.57413  35.05450  26.03944  34.05058  26.00227  33.02426  31.53696  34.02818
      12  28.75102  33.01267         17.54896  10.281000  31.53696  34.02818  26.00227  33.02426  25.96508  31.99715  31.49976  33.00108
      12  28.71381  31.98516         17.56247  10.281000  31.49976  33.00108  25.96508  31.99715  25.92785  30.96925  31.46254  31.97317
      12  28.67657  30.95687         17.57598  10.281000  31.46254  31.97317  25.92785  30.96925  25.89060  29.94056  31.42529  30.94448
      12  28.63930  29.92778         17.58951  10.281000  31.42529  30.94448  25.89060  29.94056  25.85332  28.91107  31.38800  29.91500
      12  28.60201  28.89790         17.60304  10.281000  31.38800  29.91500  25.85332  28.91107  25.81601  27.88080  31.35069  28.88473
      12  28.56468  27.86723         17.61659  10.281000  31.35069  28.88473  25.81601  27.88080  25.77867  26.84973  31.31335  27.85366
      12  28.52733  26.83576         17.63015  10.281000  31.31335  27.85366  25.77867  26.84973  25.74130  25.81787  31.27599  26.82180
      12  28.48994  25.80351         17.64371  10.281000  31.27599  26.82180  25.74130  25.81787  25.70390  24.78521  31.23859  25.78914
      12  28.45253  24.77045         17.65729  10.281000  31.23859  25.78914  25.70390  24.78521  25.66648  23.75177  31.20116  24.75569
      12  28.41509  23.73661         17.67088  10.281000  31.20116  24.75569  25.66648  23.75177  25.62902  22.71752  31.16371  23.72145
      12  28.37763  22.70196         17.68448  10.281000  31.16371  23.72145  25.62902  22.71752  25.59154  21.68248  31.12623  22.68641
      12  28.34013  21.66652         17.69809  10.281000  31.12623  22.68641  25.59154  21.68248  25.55403  20.64664  31.08872  21.65057
      12  28.30260  20.63029         17.71170  10.281000  31.08872  21.65057  25.55403  20.64664  25.51649  19.61001  31.05117  20.61393
      12  28.26505  19.59325         17.72533  10.281000  31.05117  20.61393  25.51649  19.61001  25.47892  18.57257  31.01360  19.57650
      12  28.22746  18.55542         17.73897  10.281000  31.01360  19.57650  25.47892  18.57257  25.44132  17.53434  30.97601  18.53827
      12  28.18985  17.51679         17.75263  10.281000  30.97601  18.53827  25.44132  17.53434  25.40369  16.49531  30.93838  17.49924
      12  28.15221  16.47736         17.76629  10.281000  30.93838  17.49924  25.40369  16.49531  25.36604  15.45548  30.90072  16.45941
      12  28.11454  15.43713         17.77996  10.281000  30.90072  16.45941  25.36604  15.45548  25.32835  14.41486  30.86304  15.41878
      12  28.07684  14.39610         17.79364  10.281000  30.86304  15.41878  25.32835  14.41486  25.29064  13.37343  30.82532  14.37735
      12  28.03911  13.35427         17.80733  10.281000  30.82532  14.37735  25.29064  13.37343  25.25289  12.33119  30.78758  13.33512
      12  28.00135  12.31164         17.82104  10.281000  30.78758  13.33512  25.25289  12.33119  25.21512  11.28816  30.74981  12.29209
      12  27.96356  11.26821         17.83475  10.281000  30.74981  12.29209  25.21512  11.28816  25.17732  10.24432  30.71200  11.24825
      12  27.92575  10.22397         17.84847  10.281000  30.71200  11.24825  25.17732  10.24432  25.13949   9.19968  30.67417  10.20361
      12  27.88790   9.17893         17.86221  10.281000  30.67417  10.20361  25.13949   9.19968  25.10163   8.15424  30.63631   9.15817
      12  27.85003   8.13308         17.87595  10.281000  30.63631   9.15817  25.10163   8.15424  25.06374   7.10799  30.59843   8.11192
      12  27.81212   7.08643         17.88971  10.281000  30.59843   8.11192  25.06374   7.10799  25.02582   6.06094  30.56051   7.06487
      12  27.77419   6.03897         17.90348  10.281000  30.56051   7.06487  25.02582   6.06094  24.98787   5.01308  30.52256   6.01701
      12  27.73623   4.99071         17.91725  10.281000  30.52256   6.01701  24.98787   5.01308  24.94990   3.96442  30.48458   4.96834
      12  27.69824   3.94164         17.93104  10.281000  30.48458   4.96834  24.94990   3.96442  24.91189   2.91494  30.44658   3.91887
      12  27.66022   2.89177         17.94484  10.281000  30.44658   3.91887  24.91189   2.91494  24.87386   1.86466  30.40854   2.86859
      12  27.62217   1.84108         17.95865  10.281000  30.40854   2.86859  24.87386   1.86466  24.83579   0.81358  30.37048   1.81750
      12  27.58409   0.78959         17.97247  10.281000  30.37048   1.81750  24.83579   0.81358  24.79770  -0.23832  30.33239   0.76561
      11  12.34525 127.69715         17.73897  11.124100  15.12765 128.71457   9.60833 127.62931   9.56285 126.67974  15.08216 127.76500
      11  12.29974 126.74721         17.75263  11.124100  15.08216 127.76500   9.56285 126.67974   9.51732 125.72943  15.03664 126.81469
      11  12.25420 125.79654         17.76629  11.124100  15.03664 126.81469   9.51732 125.72943   9.47177 124.77839  14.99108 125.86365
      11  12.20863 124.84514         17.77996  11.124100  14.99108 125.86365   9.47177 124.77839   9.42617 123.82663  14.94549 124.91188
      11  12.16302 123.89300         17.79364  11.124100  14.94549 124.91188   9.42617 123.82663   9.38055 122.87412  14.89986 123.95938
      11  12.11737 122.94014         17.80733  11.124100  14.89986 123.95938   9.38055 122.87412   9.33488 121.92089  14.85420 123.00615
      11  12.07169 121.98654         17.82104  11.124100  14.85420 123.00615   9.33488 121.92089   9.28919 120.96692  14.80850 122.05218
      11  12.02598 121.03220         17.83475  11.124100  14.80850 122.05218   9.28919 120.96692   9.24345 120.01222  14.76277 121.09748
      11  11.98023 120.07713         17.84847  11.124100  14.76277 121.09748   9.24345 120.01222   9.19769 119.05678  14.71700 120.14204
      11  11.93444 119.12133         17.86221  11.124100  14.71700 120.14204   9.19769 119.05678   9.15188 118.10061  14.67120 119.18587
      11  11.88862 118.16479         17.87595  11.124100  14.67120 119.18587   9.15188 118.10061   9.10605 117.14370  14.62536 118.22896
      11  11.84277 117.20751         17.88971  11.124100  14.62536 118.22896   9.10605 117.14370   9.06017 116.18606  14.57949 117.27132
      11  11.79688 116.24950         17.90348  11.124100  14.57949 117.27132   9.06017 116.18606   9.01426 115.22768  14.53358 116.31294
      11  11.75095 115.29075         17.91725  11.124100  14.53358 116.31294   9.01426 115.22768   8.96832 114.26856  14.48763 115.35382
      11  11.70499 114.33126         17.93104  11.124100  14.48763 115.35382   8.96832 114.26856   8.92234 113.30870  14.44166 114.39396
      11  11.65899 113.37104         17.94484  11.124100  14.44166 114.39396   8.92234 113.30870   8.87633 112.34811  14.39564 113.43337
      11  11.61296 112.41007         17.95865  11.124100  14.39564 113.43337   8.87633 112.34811   8.83028 111.38677  14.34959 112.47203
      11  11.56689 111.44837         17.97247  11.124100  14.34959 112.47203   8.83028 111.38677   8.78419 110.42470  14.30350 111.50996
      11  11.52079 110.48592         17.98630  11.124100  14.30350 111.50996   8.78419 110.42470   8.73807 109.46189  14.25738 110.54714
      11  11.47465 109.52274         18.00014  11.124100  14.25738 110.54714   8.73807 109.46189   8.69191 108.49833  14.21123 109.58359
      11  11.42847 108.55881         18.01399  11.124100  14.21123 109.58359   8.69191 108.49833   8.64572 107.53403  14.16503 108.61929
      11  11.38226 107.59414         18.02785  11.124100  14.16503 108.61929   8.64572 107.53403   8.59949 106.56899  14.11881 107.65425
      11  11.33602 106.62873         18.04173  11.124100  14.11881 107.65425   8.59949 106.56899   8.55323 105.60321  14.07254 106.68847
      11  11.28974 105.66258         18.05561  11.124100  14.07254 106.68847   8.55323 105.60321   8.50693 104.63669  14.02624 105.72195
      11  11.24342 104.69568         18.06951  11.124100  14.02624 105.72195   8.50693 104.63669   8.46059 103.66942  13.97991 104.75468
      11  11.19707 103.72804         18.08341  11.124100  13.97991 104.75468   8.46059 103.66942   8.41422 102.70141  13.93354 103.78666
      11  11.15068 102.75966         18.09733  11.124100  13.93354 103.78666   8.41422 102.70141   8.36782 101.73265  13.88713 102.81791
      11  11.10426 101.79053         18.11125  11.124100  13.88713 102.81791   8.36782 101.73265   8.32138 100.76315  13.84069 101.84840
      11  11.05780 100.82065         18.12519  11.124100  13.84069 101.84840   8.32138 100.76315   8.27490  99.79290  13.79422 100.87815
      11  11.01130  99.85003         18.13914  11.124100  13.79422 100.87815   8.27490  99.79290   8.22839  98.82190  13.74770  99.90716
      11  10.96477  98.87866         18.15310  11.124100  13.74770  99.90716   8.22839  98.82190   8.18184  97.85016  13.70115  98.93541
      11  10.91820  97.90654         18.16706  11.124100  13.70115  98.93541   8.18184  97.85016   8.13525  96.87767  13.65457  97.96292
      11  10.87160  96.93367         18.18104  11.124100  13.65457  97.96292   8.13525  96.87767   8.08863  95.90443  13.60795  96.98968
      11  10.82496  95.96006         18.19504  11.124100  13.60795  96.98968   8.08863  95.90443   8.04198  94.93044  13.56129  96.01570
      11  10.77829  94.98570         18.20904  11.124100  13.56129  96.01570   8.04198  94.93044   7.99528  93.95570  13.51460  95.04096
      11  10.73158  94.01059         18.22305  11.124100  13.51460  95.04096   7.99528  93.95570   7.94856  92.98021  13.46787  94.06547
      11  10.68483  93.03472         18.23707  11.124100  13.46787  94.06547   7.94856  92.98021   7.90179  92.00397  13.42111  93.08923
      11  10.63805  92.05811         18.25111  11.124100  13.42111  93.08923   7.90179  92.00397   7.85499  91.02698  13.37431  92.11224
      11  10.59123  91.08074         18.26515  11.124100  13.37431  92.11224   7.85499  91.02698   7.80816  90.04924  13.32747  91.13450
      11  10.54438  90.10262         18.27921  11.124100  13.32747  91.13450   7.80816  90.04924   7.76128  89.07075  13.28060  90.15601
      11  10.49749  89.12375         18.29327  11.124100  13.28060  90.15601   7.76128  89.07075   7.71437  88.09150  13.23369  89.17676
      11  10.45056  88.14413         18.30735  11.124100  13.23369  89.17676   7.71437  88.09150   7.66743  87.11150  13.18675  88.19676
      11  10.40360  87.16375         18.32144  11.124100  13.18675  88.19676   7.66743  87.11150   7.62045  86.13075  13.13976  87.21600
      11  10.35660  86.18262         18.33554  11.124100  13.13976  87.21600   7.62045  86.13075   7.57343  85.14924  13.09275  86.23449
      11  10.30956  85.20073         18.34965  11.124100  13.09275  86.23449   7.57343  85.14924   7.52638  84.16697  13.04570  85.25223
      11  10.26249  84.21809         18.36377  11.124100  13.04570  85.25223   7.52638  84.16697   7.47929  83.18395  12.99861  84.26921
      11  10.21539  83.23469         18.37790  11.124100  12.99861  84.26921   7.47929  83.18395   7.43217  82.20017  12.95148  83.28543
      11  10.16824  82.25054         18.39204  11.124100  12.95148  83.28543   7.43217  82.20017   7.38500  81.21564  12.90432  82.30090
      11  10.12106  81.26562         18.40619  11.124100  12.90432  82.30090   7.38500  81.21564   7.33781  80.23035  12.85712  81.31561
      11  10.07385  80.27995         18.42036  11.124100  12.85712  81.31561   7.33781  80.23035   7.29057  79.24430  12.80989  80.32956
      11  10.02659  79.29352         18.43453  11.124100  12.80989  80.32956   7.29057  79.24430   7.24330  78.25749  12.76262  79.34275
      11   9.97931  78.30634         18.44872  11.124100  12.76262  79.34275   7.24330  78.25749   7.19599  77.26992  12.71531  78.35518
      11   9.93198  77.31839         18.46292  11.124100  12.71531  78.35518   7.19599  77.26992   7.14865  76.28159  12.66797  77.36685
      11   9.88462  76.32968         18.47712  11.124100  12.66797  77.36685   7.14865  76.28159   7.10127  75.29251  12.62059  76.37776
      11   9.83722  75.34021         18.49134  11.124100  12.62059  76.37776   7.10127  75.29251   7.05386  74.30266  12.57317  75.38791
      11   9.78979  74.34998         18.50557  11.124100  12.57317  75.38791   7.05386  74.30266   7.00640  73.31205  12.52572  74.39730
      11   9.74232  73.35899         18.51981  11.124100  12.52572  74.39730   7.00640  73.31205   6.95891  72.32067  12.47823  73.40593
      11   9.69481  72.36723         18.53406  11.124100  12.47823  73.40593   6.95891  72.32067   6.91139  71.32853  12.43070  72.41379
      11   9.64726  71.37471         18.54833  11.124100  12.43070  72.41379   6.91139  71.32853   6.86383  70.33563  12.38314  71.42089
      11   9.59968  70.38143         18.56260  11.124100  12.38314  71.42089   6.86383  70.33563   6.81623  69.34197  12.33554  70.42723
      11   9.55207  69.38738         18.57688  11.124100  12.33554  70.42723   6.81623  69.34197   6.76859  68.34754  12.28791  69.43280
      11   9.50441  68.39257         18.59118  11.124100  12.28791  69.43280   6.76859  68.34754   6.72092  67.35235  12.24023  68.43761
      11   9.45672  67.39700         18.60549  11.124100  12.24023  68.43761   6.72092  67.35235   6.67321  66.35639  12.19252  67.44165
      11   9.40899  66.40065         18.61980  11.124100  12.19252  67.44165   6.67321  66.35639   6.62546  65.35966  12.14478  66.44492
      11   9.36123  65.40354         18.63413  11.124100  12.14478  66.44492   6.62546  65.35966   6.57768  64.36217  12.09700  65.44743
      11   9.31343  64.40567         18.64847  11.124100  12.09700  65.44743   6.57768  64.36217   6.52986  63.36391  12.04918  64.44917
      11   9.26559  63.40702         18.66282  11.124100  12.04918  64.44917   6.52986  63.36391   6.48201  62.36488  12.00132  63.45014
      11   9.21772  62.40761         18.67718  11.124100  12.00132  63.45014   6.48201  62.36488   6.43411  61.36508  11.95343  62.45034
      11   9.16981  61.40743         18.69156  11.124100  11.95343  62.45034   6.43411  61.36508   6.38618  60.36451  11.90550  61.44977
      11   9.12186  60.40647         18.70594  11.124100  11.90550  61.44977   6.38618  60.36451   6.33822  59.36318  11.85753  60.44843
      11   9.07387  59.40475         18.72033  11.124100  11.85753  60.44843   6.33822  59.36318   6.29021  58.36107  11.80953  59.44633
      11   9.02585  58.40226         18.73474  11.124100  11.80953  59.44633   6.29021  58.36107   6.24217  57.35819  11.76149  58.44345
      11   8.97779  57.39899         18.74916  11.124100  11.76149  58.44345   6.24217  57.35819   6.19410  56.35454  11.71341  57.43980
      11   8.92970  56.39496         18.76359  11.124100  11.71341  57.43980   6.19410  56.35454   6.14598  55.35012  11.66530  56.43537
      11   8.88156  55.39015         18.77802  11.124100  11.66530  56.43537   6.14598  55.35012   6.09783  54.34492  11.61715  55.43018
      11   8.83339  54.38456         18.79247  11.124100  11.61715  55.43018   6.09783  54.34492   6.04964  53.33895  11.56896  54.42421
      11   8.78519  53.37821         18.80694  11.124100  11.56896  54.42421   6.04964  53.33895   6.00142  52.33221  11.52073  53.41746
      11   8.73694  52.37108         18.82141  11.124100  11.52073  53.41746   6.00142  52.33221   5.95315  51.32469  11.47247  52.40995
      11   8.68866  51.36317         18.83589  11.124100  11.47247  52.40995   5.95315  51.32469   5.90485  50.31640  11.42417  51.40165
      11   8.64034  50.35449         18.85039  11.124100  11.42417  51.40165   5.90485  50.31640   5.85652  49.30733  11.37583  50.39258
      11   8.59199  49.34503         18.86489  11.124100  11.37583  50.39258   5.85652  49.30733   5.80814  48.29748  11.32746  49.38274
      11   8.54360  48.33480         18.87941  11.124100  11.32746  49.38274   5.80814  48.29748   5.75973  47.28686  11.27905  48.37211
      11   8.49517  47.32379         18.89394  11.124100  11.27905  48.37211   5.75973  47.28686   5.71128  46.27546  11.23060  47.36071
      11   8.44670  46.31200         18.90848  11.124100  11.23060  47.36071   5.71128  46.27546   5.66280  45.26328  11.18211  46.34853
      11   8.39819  45.29943         18.92303  11.124100  11.18211  46.34853   5.66280  45.26328   5.61428  44.25032  11.13359  45.33558
      11   8.34965  44.28608         18.93759  11.124100  11.13359  45.33558   5.61428  44.25032   5.56571  43.23658  11.08503  44.32184
      11   8.30107  43.27195         18.95216  11.124100  11.08503  44.32184   5.56571  43.23658   5.51712  42.22206  11.03643  43.30732
      11   8.25246  42.25704         18.96675  11.124100  11.03643  43.30732   5.51712  42.22206   5.46848  41.20677  10.98780  42.29202
      11   8.20380  41.24135         18.98134  11.124100  10.98780  42.29202   5.46848  41.20677   5.41981  40.19069  10.93912  41.27594
      11   8.15511  40.22488         18.99595  11.124100  10.93912  41.27594   5.41981  40.19069   5.37110  39.17382  10.89041  40.25908
      11   8.10638  39.20763         19.01057  11.124100  10.89041  40.25908   5.37110  39.17382   5.32235  38.15618  10.84167  39.24144
      11   8.05762  38.18960         19.02520  11.124100  10.84167  39.24144   5.32235  38.15618   5.27357  37.13775  10.79288  38.22301
      11   8.00881  37.17078         19.03984  11.124100  10.79288  38.22301   5.27357  37.13775   5.22474  36.11854  10.74406  37.20380
      11   7.95997  36.15117         19.05449  11.124100  10.74406  37.20380   5.22474  36.11854   5.17588  35.09855  10.69520  36.18381
      11   7.91109  35.13079         19.06915  11.124100  10.69520  36.18381   5.17588  35.09855   5.12699  34.07777  10.64630  35.16303
      11   7.86217  34.10961         19.08382  11.124100  10.64630  35.16303   5.12699  34.07777   5.07805  33.05620  10.59736  34.14146
      11   7.81322  33.08766         19.09851  11.124100  10.59736  34.14146   5.07805  33.05620   5.02908  32.03385  10.54839  33.11911
      11   7.76423  32.06491         19.11321  11.124100  10.54839  33.11911   5.02908  32.03385   4.98007  31.01071  10.49938  32.09597
      11   7.71520  31.04138         19.12792  11.124100  10.49938  32.09597   4.98007  31.01071   4.93102  29.98679  10.45033  31.07204
      11   7.66613  30.01706         19.14263  11.124100  10.45033  31.07204   4.93102  29.98679   4.88193  28.96207  10.40125  30.04733
      11   7.61703  28.99195         19.15737  11.124100  10.40125  30.04733   4.88193  28.96207   4.83281  27.93657  10.35212  29.02183
      11   7.56788  27.96605         19.17211  11.124100  10.35212  29.02183   4.83281  27.93657   4.78364  26.91028  10.30296  27.99554
      11   7.51870  26.93937         19.18686  11.124100  10.30296  27.99554   4.78364  26.91028   4.73445  25.88320  10.25376  26.96846
      11   7.46948  25.91189         19.20163  11.124100  10.25376  26.96846   4.73445  25.88320   4.68521  24.85533  10.20452  25.94058
      11   7.42023  24.88362         19.21640  11.124100  10.20452  25.94058   4.68521  24.85533   4.63593  23.82666  10.15525  24.91192
      11   7.37093  23.85457         19.23119  11.124100  10.15525  24.91192   4.63593  23.82666   4.58662  22.79721  10.10593  23.88247
      11   7.32160  22.82472         19.24599  11.124100  10.10593  23.88247   4.58662  22.79721   4.53727  21.76696  10.05658  22.85222
      11   7.27223  21.79407         19.26080  11.124100  10.05658  22.85222   4.53727  21.76696   4.48788  20.73592  10.00719  21.82118
      11   7.22282  20.76264         19.27562  11.124100  10.00719  21.82118   4.48788  20.73592   4.43845  19.70409   9.95777  20.78935
      11   7.17338  19.73041         19.29045  11.124100   9.95777  20.78935   4.43845  19.70409   4.38899  18.67147   9.90830  19.75672
      11   7.12389  18.69738         19.30530  11.124100   9.90830  19.75672   4.38899  18.67147   4.33948  17.63804   9.85880  18.72330
      11   7.07437  17.66357         19.32015  11.124100   9.85880  18.72330   4.33948  17.63804   4.28994  16.60383   9.80926  17.68909
      11   7.02481  16.62895         19.33502  11.124100   9.80926  17.68909   4.28994  16.60383   4.24036  15.56882   9.75968  16.65407
      11   6.97521  15.59354         19.34990  11.124100   9.75968  16.65407   4.24036  15.56882   4.19074  14.53301   9.71006  15.61827
      11   6.92557  14.55733         19.36479  11.124100   9.71006  15.61827   4.19074  14.53301   4.14109  13.49640   9.66040  14.58166
      11   6.87590  13.52033         19.37969  11.124100   9.66040  14.58166   4.14109  13.49640   4.09139  12.45900   9.61071  13.54426
      11   6.82618  12.48253         19.39461  11.124100   9.61071  13.54426   4.09139  12.45900   4.04166  11.42080   9.56098  12.50605
      11   6.77643  11.44393         19.40953  11.124100   9.56098  12.50605   4.04166  11.42080   3.99189  10.38180   9.51121  11.46705
      11   6.72664  10.40452         19.42447  11.124100   9.51121  11.46705   3.99189  10.38180   3.94208   9.34200   9.46140  10.42725
      11   6.67682   9.36432         19.43941  11.124100   9.46140  10.42725   3.94208   9.34200   3.89223   8.30140   9.41155   9.38665
      11   6.62695   8.32332         19.45437  11.124100   9.41155   9.38665   3.89223   8.30140   3.84235   7.25999   9.36166   8.34525
      11   6.57704   7.28152         19.46934  11.124100   9.36166   8.34525   3.84235   7.25999   3.79242   6.21779   9.31174   7.30305
      11   6.52710   6.23892         19.48433  11.124100   9.31174   7.30305   3.79242   6.21779   3.74246   5.17479   9.26178   6.26005
      11   6.47712   5.19551         19.49932  11.124100   9.26178   6.26005   3.74246   5.17479   3.69246   4.13098   9.21178   5.21624
      11   6.42710   4.15130         19.51432  11.124100   9.21178   5.21624   3.69246   4.13098   3.64242   3.08637   9.16174   4.17163
      11   6.37704   3.10629         19.52934  11.124100   9.16174   4.17163   3.64242   3.08637   3.59234   2.04096   9.11166   3.12621
      11   6.32694   2.06048         19.54437  11.124100   9.11166   3.12621   3.59234   2.04096   3.54223   0.99474   9.06154   2.07999
      11   6.27681   1.01385         19.55941  11.124100   9.06154   2.07999   3.54223   0.99474   3.49207  -0.05229   9.01139   1.03297
