\wavsamp version 5.1 (Wed Apr 20 08:45:04 PDT 2005)
\processing time 13:38:55 PST 04/26/2005
\character channelID = 1
| order |x_center |y_center |   wavelength   |  angle   |   x0    |   y0    |   x1    |   y1    |   x2    |   y2    |   x3    |   y3    |
| int   |  real   |  real   |    real        |   real   |  real   |  real   |  real   |  real   |  real   |  real   |  real   |  real   |
      20 120.64713 128.00022          9.89273   6.481150 123.43009 128.81046 117.84104 128.17553 117.86416 127.18998 123.45321 127.82491
      20 120.67025 127.01429          9.90034   6.481150 123.45321 127.82491 117.86416 127.18998 117.88729 126.20368 123.47634 126.83860
      20 120.69339 126.02761          9.90796   6.481150 123.47634 126.83860 117.88729 126.20368 117.91044 125.21661 123.49949 125.85154
      20 120.71655 125.04016          9.91559   6.481150 123.49949 125.85154 117.91044 125.21661 117.93361 124.22878 123.52266 124.86371
      20 120.73973 124.05195          9.92322   6.481150 123.52266 124.86371 117.93361 124.22878 117.95680 123.24019 123.54585 123.87512
      20 120.76293 123.06298          9.93085   6.481150 123.54585 123.87512 117.95680 123.24019 117.98000 122.25085 123.56905 122.88578
      20 120.78614 122.07326          9.93849   6.481150 123.56905 122.88578 117.98000 122.25085 118.00322 121.26074 123.59228 121.89567
      20 120.80937 121.08277          9.94614   6.481150 123.59228 121.89567 118.00322 121.26074 118.02646 120.26987 123.61552 120.90480
      20 120.83262 120.09151          9.95380   6.481150 123.61552 120.90480 118.02646 120.26987 118.04972 119.27823 123.63877 119.91316
      20 120.85589 119.09950          9.96146   6.481150 123.63877 119.91316 118.04972 119.27823 118.07300 118.28584 123.66205 118.92077
      20 120.87917 118.10672          9.96912   6.481150 123.66205 118.92077 118.07300 118.28584 118.09629 117.29268 123.68534 117.92760
      20 120.90247 117.11318          9.97679   6.481150 123.68534 117.92760 118.09629 117.29268 118.11960 116.29875 123.70866 116.93368
      20 120.92579 116.11887          9.98447   6.481150 123.70866 116.93368 118.11960 116.29875 118.14293 115.30406 123.73198 115.93899
      20 120.94913 115.12380          9.99215   6.481150 123.73198 115.93899 118.14293 115.30406 118.16628 114.30861 123.75533 114.94354
      20 120.97249 114.12796          9.99984   6.481150 123.75533 114.94354 118.16628 114.30861 118.18965 113.31239 123.77870 113.94732
      20 120.99586 113.13136         10.00754   6.481150 123.77870 113.94732 118.18965 113.31239 118.21303 112.31540 123.80208 112.95033
      20 121.01926 112.13399         10.01524   6.481150 123.80208 112.95033 118.21303 112.31540 118.23643 111.31764 123.82548 111.95257
      20 121.04267 111.13585         10.02295   6.481150 123.82548 111.95257 118.23643 111.31764 118.25985 110.31912 123.84890 110.95405
      20 121.06610 110.13694         10.03066   6.481150 123.84890 110.95405 118.25985 110.31912 118.28329 109.31983 123.87234 109.95476
      20 121.08954 109.13727         10.03838   6.481150 123.87234 109.95476 118.28329 109.31983 118.30675 108.31977 123.89580 108.95470
      20 121.11301 108.13682         10.04610   6.481150 123.89580 108.95470 118.30675 108.31977 118.33022 107.31894 123.91927 107.95387
      20 121.13649 107.13561         10.05383   6.481150 123.91927 107.95387 118.33022 107.31894 118.35371 106.31734 123.94276 106.95227
      20 121.15999 106.13362         10.06157   6.481150 123.94276 106.95227 118.35371 106.31734 118.37722 105.31497 123.96627 105.94990
      20 121.18351 105.13086         10.06931   6.481150 123.96627 105.94990 118.37722 105.31497 118.40075 104.31183 123.98980 104.94676
      20 121.20705 104.12734         10.07706   6.481150 123.98980 104.94676 118.40075 104.31183 118.42430 103.30792 124.01335 103.94285
      20 121.23060 103.12304         10.08482   6.481150 124.01335 103.94285 118.42430 103.30792 118.44786 102.30323 124.03691 102.93816
      20 121.25418 102.11796         10.09258   6.481150 124.03691 102.93816 118.44786 102.30323 118.47144 101.29777 124.06049 101.93270
      20 121.27777 101.11212         10.10034   6.481150 124.06049 101.93270 118.47144 101.29777 118.49504 100.29154 124.08409 100.92647
      20 121.30138 100.10550         10.10812   6.481150 124.08409 100.92647 118.49504 100.29154 118.51866  99.28453 124.10771  99.91946
      20 121.32501  99.09810         10.11589   6.481150 124.10771  99.91946 118.51866  99.28453 118.54230  98.27675 124.13135  98.91168
      20 121.34865  98.08993         10.12368   6.481150 124.13135  98.91168 118.54230  98.27675 118.56595  97.26819 124.15500  97.90312
      20 121.37232  97.08099         10.13147   6.481150 124.15500  97.90312 118.56595  97.26819 118.58963  96.25886 124.17868  96.89378
      20 121.39600  96.07126         10.13927   6.481150 124.17868  96.89378 118.58963  96.25886 118.61332  95.24874 124.20237  95.88367
      20 121.41970  95.06077         10.14707   6.481150 124.20237  95.88367 118.61332  95.24874 118.63703  94.23786 124.22608  94.87279
      20 121.44342  94.04949         10.15488   6.481150 124.22608  94.87279 118.63703  94.23786 118.66076  93.22619 124.24981  93.86112
      20 121.46715  93.03743         10.16269   6.481150 124.24981  93.86112 118.66076  93.22619 118.68450  92.21375 124.27355  92.84868
      20 121.49091  92.02460         10.17051   6.481150 124.27355  92.84868 118.68450  92.21375 118.70827  91.20052 124.29732  91.83545
      20 121.51468  91.01099         10.17834   6.481150 124.29732  91.83545 118.70827  91.20052 118.73205  90.18652 124.32110  90.82145
      20 121.53847  89.99659         10.18617   6.481150 124.32110  90.82145 118.73205  90.18652 118.75585  89.17174 124.34490  89.80667
      20 121.56229  88.98142         10.19401   6.481150 124.34490  89.80667 118.75585  89.17174 118.77967  88.15617 124.36872  88.79110
      20 121.58611  87.96546         10.20185   6.481150 124.36872  88.79110 118.77967  88.15617 118.80351  87.13983 124.39256  87.77476
      20 121.60996  86.94873         10.20970   6.481150 124.39256  87.77476 118.80351  87.13983 118.82736  86.12270 124.41641  86.75763
      20 121.63383  85.93121         10.21756   6.481150 124.41641  86.75763 118.82736  86.12270 118.85124  85.10479 124.44029  85.73972
      20 121.65771  84.91291         10.22542   6.481150 124.44029  85.73972 118.85124  85.10479 118.87513  84.08609 124.46418  84.72102
      20 121.68161  83.89382         10.23329   6.481150 124.46418  84.72102 118.87513  84.08609 118.89904  83.06662 124.48809  83.70155
      20 121.70553  82.87395         10.24117   6.481150 124.48809  83.70155 118.89904  83.06662 118.92297  82.04635 124.51202  82.68128
      20 121.72947  81.85329         10.24905   6.481150 124.51202  82.68128 118.92297  82.04635 118.94692  81.02531 124.53597  81.66024
      20 121.75343  80.83185         10.25693   6.481150 124.53597  81.66024 118.94692  81.02531 118.97089  80.00347 124.55994  80.63840
      20 121.77740  79.80963         10.26483   6.481150 124.55994  80.63840 118.97089  80.00347 118.99487  78.98085 124.58392  79.61578
      20 121.80140  78.78661         10.27273   6.481150 124.58392  79.61578 118.99487  78.98085 119.01887  77.95745 124.60792  78.59238
      20 121.82541  77.76281         10.28063   6.481150 124.60792  78.59238 119.01887  77.95745 119.04290  76.93325 124.63195  77.56818
      20 121.84944  76.73823         10.28854   6.481150 124.63195  77.56818 119.04290  76.93325 119.06694  75.90827 124.65599  76.54320
      20 121.87349  75.71285         10.29646   6.481150 124.65599  76.54320 119.06694  75.90827 119.09099  74.88250 124.68005  75.51743
      20 121.89756  74.68668         10.30438   6.481150 124.68005  75.51743 119.09099  74.88250 119.11507  73.85594 124.70412  74.49087
      20 121.92164  73.65973         10.31231   6.481150 124.70412  74.49087 119.11507  73.85594 119.13917  72.82859 124.72822  73.46352
      20 121.94575  72.63198         10.32025   6.481150 124.72822  73.46352 119.13917  72.82859 119.16328  71.80045 124.75233  72.43538
      20 121.96987  71.60345         10.32819   6.481150 124.75233  72.43538 119.16328  71.80045 119.18741  70.77152 124.77647  71.40645
      20 121.99402  70.57412         10.33614   6.481150 124.77647  71.40645 119.18741  70.77152 119.21157  69.74179 124.80062  70.37672
      20 122.01818  69.54400         10.34409   6.481150 124.80062  70.37672 119.21157  69.74179 119.23574  68.71128 124.82479  69.34621
      20 122.04236  68.51309         10.35205   6.481150 124.82479  69.34621 119.23574  68.71128 119.25992  67.67997 124.84898  68.31490
      20 122.06655  67.48138         10.36002   6.481150 124.84898  68.31490 119.25992  67.67997 119.28413  66.64786 124.87318  67.28279
      20 122.09077  66.44888         10.36799   6.481150 124.87318  67.28279 119.28413  66.64786 119.30836  65.61497 124.89741  66.24990
      20 122.11501  65.41559         10.37597   6.481150 124.89741  66.24990 119.30836  65.61497 119.33260  64.58127 124.92165  65.21620
      20 122.13926  64.38150         10.38395   6.481150 124.92165  65.21620 119.33260  64.58127 119.35687  63.54679 124.94592  64.18172
      20 122.16353  63.34661         10.39194   6.481150 124.94592  64.18172 119.35687  63.54679 119.38115  62.51150 124.97020  63.14643
      20 122.18782  62.31093         10.39994   6.481150 124.97020  63.14643 119.38115  62.51150 119.40545  61.47542 124.99450  62.11035
      20 122.21213  61.27445         10.40794   6.481150 124.99450  62.11035 119.40545  61.47542 119.42977  60.43855 125.01882  61.07348
      20 122.23646  60.23717         10.41595   6.481150 125.01882  61.07348 119.42977  60.43855 119.45411  59.40087 125.04316  60.03580
      20 122.26081  59.19910         10.42397   6.481150 125.04316  60.03580 119.45411  59.40087 119.47846  58.36240 125.06751  58.99733
      20 122.28518  58.16023         10.43199   6.481150 125.06751  58.99733 119.47846  58.36240 119.50284  57.32312 125.09189  57.95805
      20 122.30956  57.12055         10.44002   6.481150 125.09189  57.95805 119.50284  57.32312 119.52723  56.28305 125.11628  56.91798
      20 122.33396  56.08008         10.44805   6.481150 125.11628  56.91798 119.52723  56.28305 119.55164  55.24218 125.14070  55.87711
      20 122.35839  55.03881         10.45609   6.481150 125.14070  55.87711 119.55164  55.24218 119.57608  54.20050 125.16513  54.83543
      20 122.38283  53.99673         10.46414   6.481150 125.16513  54.83543 119.57608  54.20050 119.60053  53.15803 125.18958  53.79296
      20 122.40729  52.95385         10.47219   6.481150 125.18958  53.79296 119.60053  53.15803 119.62500  52.11475 125.21405  52.74968
      20 122.43177  51.91017         10.48025   6.481150 125.21405  52.74968 119.62500  52.11475 119.64948  51.07067 125.23854  51.70560
      20 122.45626  50.86569         10.48831   6.481150 125.23854  51.70560 119.64948  51.07067 119.67399  50.02579 125.26304  50.66072
      20 122.48078  49.82041         10.49639   6.481150 125.26304  50.66072 119.67399  50.02579 119.69852  48.98010 125.28757  49.61503
      20 122.50532  48.77432         10.50446   6.481150 125.28757  49.61503 119.69852  48.98010 119.72306  47.93360 125.31211  48.56853
      20 122.52987  47.72742         10.51255   6.481150 125.31211  48.56853 119.72306  47.93360 119.74763  46.88631 125.33668  47.52124
      20 122.55444  46.67972         10.52064   6.481150 125.33668  47.52124 119.74763  46.88631 119.77221  45.83820 125.36126  46.47313
      20 122.57903  45.63121         10.52873   6.481150 125.36126  46.47313 119.77221  45.83820 119.79681  44.78929 125.38586  45.42422
      20 122.60365  44.58190         10.53683   6.481150 125.38586  45.42422 119.79681  44.78929 119.82143  43.73957 125.41048  44.37450
      20 122.62828  43.53178         10.54494   6.481150 125.41048  44.37450 119.82143  43.73957 119.84607  42.68905 125.43512  43.32398
      20 122.65292  42.48085         10.55306   6.481150 125.43512  43.32398 119.84607  42.68905 119.87073  41.63771 125.45978  42.27264
      20 122.67759  41.42911         10.56118   6.481150 125.45978  42.27264 119.87073  41.63771 119.89541  40.58557 125.48446  41.22050
      20 122.70228  40.37656         10.56930   6.481150 125.48446  41.22050 119.89541  40.58557 119.92010  39.53262 125.50915  40.16755
      20 122.72698  39.32320         10.57744   6.481150 125.50915  40.16755 119.92010  39.53262 119.94482  38.47886 125.53387  39.11378
      20 122.75171  38.26903         10.58558   6.481150 125.53387  39.11378 119.94482  38.47886 119.96955  37.42428 125.55860  38.05921
      20 122.77645  37.21405         10.59372   6.481150 125.55860  38.05921 119.96955  37.42428 119.99430  36.36890 125.58336  37.00383
      20 122.80122  36.15826         10.60188   6.481150 125.58336  37.00383 119.99430  36.36890 120.01908  35.31270 125.60813  35.94763
      20 122.82600  35.10166         10.61003   6.481150 125.60813  35.94763 120.01908  35.31270 120.04387  34.25569 125.63292  34.89062
      20 122.85080  34.04424         10.61820   6.481150 125.63292  34.89062 120.04387  34.25569 120.06868  33.19786 125.65773  33.83279
      20 122.87562  32.98601         10.62637   6.481150 125.65773  33.83279 120.06868  33.19786 120.09351  32.13923 125.68256  32.77416
      20 122.90046  31.92696         10.63455   6.481150 125.68256  32.77416 120.09351  32.13923 120.11836  31.07977 125.70741  31.71470
      20 122.92532  30.86710         10.64273   6.481150 125.70741  31.71470 120.11836  31.07977 120.14323  30.01951 125.73228  30.65444
      20 122.95019  29.80643         10.65092   6.481150 125.73228  30.65444 120.14323  30.01951 120.16811  28.95842 125.75716  29.59335
      19 113.51529 127.54015         10.38395   6.669800 116.29996 128.33610 110.71303 127.68278 110.73062 126.74419 116.31755 127.39752
      19 113.53288 126.60120         10.39194   6.669800 116.31755 127.39752 110.73062 126.74419 110.74821 125.80488 116.33514 126.45821
      19 113.55048 125.66153         10.39994   6.669800 116.33514 126.45821 110.74821 125.80488 110.76582 124.86485 116.35275 125.51817
      19 113.56809 124.72113         10.40794   6.669800 116.35275 125.51817 110.76582 124.86485 110.78344 123.92409 116.37037 124.57742
      19 113.58572 123.78002         10.41595   6.669800 116.37037 124.57742 110.78344 123.92409 110.80107 122.98261 116.38800 123.63594
      19 113.60336 122.83817         10.42397   6.669800 116.38800 123.63594 110.80107 122.98261 110.81872 122.04041 116.40565 122.69374
      19 113.62102 121.89561         10.43199   6.669800 116.40565 122.69374 110.81872 122.04041 110.83639 121.09748 116.42332 121.75081
      19 113.63869 120.95231         10.44002   6.669800 116.42332 121.75081 110.83639 121.09748 110.85406 120.15382 116.44099 120.80715
      19 113.65637 120.00830         10.44805   6.669800 116.44099 120.80715 110.85406 120.15382 110.87175 119.20944 116.45868 119.86277
      19 113.67407 119.06355         10.45609   6.669800 116.45868 119.86277 110.87175 119.20944 110.88945 118.26433 116.47638 118.91766
      19 113.69178 118.11808         10.46414   6.669800 116.47638 118.91766 110.88945 118.26433 110.90717 117.31850 116.49410 117.97183
      19 113.70950 117.17188         10.47219   6.669800 116.49410 117.97183 110.90717 117.31850 110.92490 116.37194 116.51183 117.02526
      19 113.72724 116.22495         10.48025   6.669800 116.51183 117.02526 110.92490 116.37194 110.94264 115.42465 116.52957 116.07797
      19 113.74499 115.27730         10.48831   6.669800 116.52957 116.07797 110.94264 115.42465 110.96040 114.47662 116.54733 115.12995
      19 113.76275 114.32891         10.49639   6.669800 116.54733 115.12995 110.96040 114.47662 110.97817 113.52788 116.56510 114.18120
      19 113.78053 113.37980         10.50446   6.669800 116.56510 114.18120 110.97817 113.52788 110.99596 112.57840 116.58289 113.23172
      19 113.79832 112.42995         10.51255   6.669800 116.58289 113.23172 110.99596 112.57840 111.01376 111.62818 116.60069 112.28151
      19 113.81613 111.47938         10.52064   6.669800 116.60069 112.28151 111.01376 111.62818 111.03157 110.67724 116.61850 111.33057
      19 113.83395 110.52807         10.52873   6.669800 116.61850 111.33057 111.03157 110.67724 111.04940 109.72557 116.63633 110.37890
      19 113.85178 109.57603         10.53683   6.669800 116.63633 110.37890 111.04940 109.72557 111.06724 108.77316 116.65417 109.42649
      19 113.86963 108.62326         10.54494   6.669800 116.65417 109.42649 111.06724 108.77316 111.08509 107.82003 116.67202 108.47335
      19 113.88749 107.66975         10.55306   6.669800 116.67202 108.47335 111.08509 107.82003 111.10296 106.86615 116.68989 107.51948
      19 113.90536 106.71551         10.56118   6.669800 116.68989 107.51948 111.10296 106.86615 111.12084 105.91155 116.70777 106.56487
      19 113.92325 105.76054         10.56930   6.669800 116.70777 106.56487 111.12084 105.91155 111.13873 104.95621 116.72566 105.60953
      19 113.94115 104.80483         10.57744   6.669800 116.72566 105.60953 111.13873 104.95621 111.15664 104.00013 116.74357 104.65346
      19 113.95907 103.84839         10.58558   6.669800 116.74357 104.65346 111.15664 104.00013 111.17456 103.04332 116.76149 103.69665
      19 113.97700 102.89121         10.59372   6.669800 116.76149 103.69665 111.17456 103.04332 111.19250 102.08577 116.77943 102.73910
      19 113.99494 101.93329         10.60188   6.669800 116.77943 102.73910 111.19250 102.08577 111.21045 101.12749 116.79738 101.78081
      19 114.01290 100.97464         10.61003   6.669800 116.79738 101.78081 111.21045 101.12749 111.22841 100.16846 116.81534 100.82179
      19 114.03087 100.01525         10.61820   6.669800 116.81534 100.82179 111.22841 100.16846 111.24639  99.20870 116.83332  99.86203
      19 114.04885  99.05512         10.62637   6.669800 116.83332  99.86203 111.24639  99.20870 111.26438  98.24820 116.85131  98.90153
      19 114.06685  98.09425         10.63455   6.669800 116.85131  98.90153 111.26438  98.24820 111.28239  97.28697 116.86932  97.94029
      19 114.08486  97.13264         10.64273   6.669800 116.86932  97.94029 111.28239  97.28697 111.30041  96.32499 116.88734  96.97832
      19 114.10289  96.17029         10.65092   6.669800 116.88734  96.97832 111.30041  96.32499 111.31844  95.36227 116.90537  96.01560
      19 114.12093  95.20721         10.65912   6.669800 116.90537  96.01560 111.31844  95.36227 111.33649  94.39881 116.92342  95.05214
      19 114.13898  94.24338         10.66732   6.669800 116.92342  95.05214 111.33649  94.39881 111.35455  93.43461 116.94148  94.08794
      19 114.15705  93.27880         10.67553   6.669800 116.94148  94.08794 111.35455  93.43461 111.37262  92.46967 116.95955  93.12300
      19 114.17513  92.31349         10.68374   6.669800 116.95955  93.12300 111.37262  92.46967 111.39071  91.50398 116.97764  92.15731
      19 114.19323  91.34743         10.69196   6.669800 116.97764  92.15731 111.39071  91.50398 111.40881  90.53756 116.99574  91.19088
      19 114.21133  90.38064         10.70019   6.669800 116.99574  91.19088 111.40881  90.53756 111.42693  89.57039 117.01386  90.22371
      19 114.22946  89.41309         10.70843   6.669800 117.01386  90.22371 111.42693  89.57039 111.44506  88.60247 117.03199  89.25580
      19 114.24760  88.44480         10.71667   6.669800 117.03199  89.25580 111.44506  88.60247 111.46320  87.63381 117.05013  88.28714
      19 114.26575  87.47577         10.72491   6.669800 117.05013  88.28714 111.46320  87.63381 111.48136  86.66440 117.06829  87.31773
      19 114.28391  86.50599         10.73317   6.669800 117.06829  87.31773 111.48136  86.66440 111.49953  85.69425 117.08646  86.34758
      19 114.30209  85.53547         10.74143   6.669800 117.08646  86.34758 111.49953  85.69425 111.51772  84.72335 117.10465  85.37668
      19 114.32028  84.56419         10.74969   6.669800 117.10465  85.37668 111.51772  84.72335 111.53592  83.75171 117.12285  84.40503
      19 114.33849  83.59217         10.75796   6.669800 117.12285  84.40503 111.53592  83.75171 111.55413  82.77931 117.14106  83.43264
      19 114.35671  82.61941         10.76624   6.669800 117.14106  83.43264 111.55413  82.77931 111.57236  81.80617 117.15929  82.45950
      19 114.37495  81.64589         10.77453   6.669800 117.15929  82.45950 111.57236  81.80617 111.59060  80.83228 117.17753  81.48561
      19 114.39320  80.67163         10.78282   6.669800 117.17753  81.48561 111.59060  80.83228 111.60886  79.85764 117.19579  80.51097
      19 114.41146  79.69661         10.79112   6.669800 117.19579  80.51097 111.60886  79.85764 111.62713  78.88225 117.21406  79.53558
      19 114.42974  78.72084         10.79942   6.669800 117.21406  79.53558 111.62713  78.88225 111.64541  77.90611 117.23234  78.55944
      19 114.44803  77.74433         10.80773   6.669800 117.23234  78.55944 111.64541  77.90611 111.66371  76.92922 117.25064  77.58255
      19 114.46633  76.76706         10.81605   6.669800 117.25064  77.58255 111.66371  76.92922 111.68203  75.95158 117.26896  76.60490
      19 114.48465  75.78904         10.82437   6.669800 117.26896  76.60490 111.68203  75.95158 111.70035  74.97318 117.28728  75.62651
      19 114.50299  74.81027         10.83270   6.669800 117.28728  75.62651 111.70035  74.97318 111.71869  73.99403 117.30562  74.64736
      19 114.52133  73.83074         10.84104   6.669800 117.30562  74.64736 111.71869  73.99403 111.73705  73.01413 117.32398  73.66746
      19 114.53970  72.85046         10.84938   6.669800 117.32398  73.66746 111.73705  73.01413 111.75542  72.03347 117.34235  72.68680
      19 114.55807  71.86943         10.85773   6.669800 117.34235  72.68680 111.75542  72.03347 111.77380  71.05206 117.36073  71.70539
      19 114.57646  70.88764         10.86608   6.669800 117.36073  71.70539 111.77380  71.05206 111.79220  70.06990 117.37913  70.72322
      19 114.59487  69.90510         10.87444   6.669800 117.37913  70.72322 111.79220  70.06990 111.81061  69.08697 117.39754  69.74030
      19 114.61329  68.92180         10.88281   6.669800 117.39754  69.74030 111.81061  69.08697 111.82903  68.10329 117.41596  68.75662
      19 114.63172  67.93774         10.89119   6.669800 117.41596  68.75662 111.82903  68.10329 111.84747  67.11886 117.43440  67.77219
      19 114.65016  66.95293         10.89957   6.669800 117.43440  67.77219 111.84747  67.11886 111.86593  66.13367 117.45286  66.78699
      19 114.66863  65.96736         10.90796   6.669800 117.45286  66.78699 111.86593  66.13367 111.88439  65.14772 117.47132  65.80104
      19 114.68710  64.98103         10.91635   6.669800 117.47132  65.80104 111.88439  65.14772 111.90288  64.16101 117.48981  64.81433
      19 114.70559  63.99394         10.92475   6.669800 117.48981  64.81433 111.90288  64.16101 111.92137  63.17354 117.50830  63.82687
      19 114.72409  63.00609         10.93316   6.669800 117.50830  63.82687 111.92137  63.17354 111.93988  62.18531 117.52681  62.83864
      19 114.74261  62.01748         10.94157   6.669800 117.52681  62.83864 111.93988  62.18531 111.95841  61.19632 117.54534  61.84965
      19 114.76114  61.02811         10.94999   6.669800 117.54534  61.84965 111.95841  61.19632 111.97695  60.20657 117.56388  60.85990
      19 114.77969  60.03798         10.95842   6.669800 117.56388  60.85990 111.97695  60.20657 111.99550  59.21606 117.58243  59.86938
      19 114.79825  59.04708         10.96685   6.669800 117.58243  59.86938 111.99550  59.21606 112.01407  58.22478 117.60100  58.87811
      19 114.81683  58.05543         10.97529   6.669800 117.60100  58.87811 112.01407  58.22478 112.03265  57.23275 117.61958  57.88607
      19 114.83542  57.06301         10.98373   6.669800 117.61958  57.88607 112.03265  57.23275 112.05125  56.23994 117.63818  56.89327
      19 114.85402  56.06983         10.99219   6.669800 117.63818  56.89327 112.05125  56.23994 112.06986  55.24638 117.65679  55.89971
      19 114.87264  55.07588         11.00065   6.669800 117.65679  55.89971 112.06986  55.24638 112.08848  54.25205 117.67541  54.90538
      19 114.89127  54.08117         11.00911   6.669800 117.67541  54.90538 112.08848  54.25205 112.10712  53.25696 117.69405  53.91029
      19 114.90992  53.08569         11.01758   6.669800 117.69405  53.91029 112.10712  53.25696 112.12578  52.26110 117.71271  52.91443
      19 114.92858  52.08945         11.02606   6.669800 117.71271  52.91443 112.12578  52.26110 112.14445  51.26447 117.73138  51.91780
      19 114.94725  51.09244         11.03455   6.669800 117.73138  51.91780 112.14445  51.26447 112.16313  50.26708 117.75006  50.92041
      19 114.96594  50.09466         11.04304   6.669800 117.75006  50.92041 112.16313  50.26708 112.18182  49.26892 117.76875  49.92225
      19 114.98465  49.09612         11.05154   6.669800 117.76875  49.92225 112.18182  49.26892 112.20054  48.26999 117.78747  48.92332
      19 115.00336  48.09680         11.06004   6.669800 117.78747  48.92332 112.20054  48.26999 112.21926  47.27029 117.80619  47.92362
      19 115.02210  47.09672         11.06855   6.669800 117.80619  47.92362 112.21926  47.27029 112.23800  46.26982 117.82493  46.92315
      19 115.04084  46.09587         11.07707   6.669800 117.82493  46.92315 112.23800  46.26982 112.25676  45.26859 117.84369  45.92192
      19 115.05961  45.09425         11.08559   6.669800 117.84369  45.92192 112.25676  45.26859 112.27552  44.26658 117.86245  44.91991
      19 115.07838  44.09185         11.09412   6.669800 117.86245  44.91991 112.27552  44.26658 112.29431  43.26380 117.88124  43.91713
      19 115.09717  43.08869         11.10266   6.669800 117.88124  43.91713 112.29431  43.26380 112.31311  42.26025 117.90004  42.91358
      19 115.11598  42.08475         11.11120   6.669800 117.90004  42.91358 112.31311  42.26025 112.33192  41.25593 117.91885  41.90926
      19 115.13480  41.08005         11.11975   6.669800 117.91885  41.90926 112.33192  41.25593 112.35074  40.25083 117.93767  40.90416
      19 115.15363  40.07456         11.12831   6.669800 117.93767  40.90416 112.35074  40.25083 112.36959  39.24497 117.95652  39.89829
      19 115.17248  39.06831         11.13688   6.669800 117.95652  39.89829 112.36959  39.24497 112.38844  38.23832 117.97537  38.89165
      19 115.19134  38.06128         11.14545   6.669800 117.97537  38.89165 112.38844  38.23832 112.40731  37.23091 117.99424  37.88423
      19 115.21022  37.05347         11.15402   6.669800 117.99424  37.88423 112.40731  37.23091 112.42620  36.22271 118.01313  36.87604
      19 115.22911  36.04489         11.16261   6.669800 118.01313  36.87604 112.42620  36.22271 112.44510  35.21375 118.03203  35.86707
      19 115.24802  35.03554         11.17120   6.669800 118.03203  35.86707 112.44510  35.21375 112.46401  34.20400 118.05094  34.85733
      19 115.26694  34.02540         11.17979   6.669800 118.05094  34.85733 112.46401  34.20400 112.48294  33.19348 118.06987  33.84681
      19 115.28587  33.01449         11.18839   6.669800 118.06987  33.84681 112.48294  33.19348 112.50188  32.18218 118.08881  32.83551
      19 115.30482  32.00281         11.19700   6.669800 118.08881  32.83551 112.50188  32.18218 112.52084  31.17010 118.10777  31.82343
      19 115.32379  30.99034         11.20562   6.669800 118.10777  31.82343 112.52084  31.17010 112.53981  30.15725 118.12674  30.81057
      19 115.34277  29.97709         11.21424   6.669800 118.12674  30.81057 112.53981  30.15725 112.55880  29.14361 118.14573  29.79694
      19 115.36176  28.96307         11.22287   6.669800 118.14573  29.79694 112.55880  29.14361 112.57780  28.12919 118.16473  28.78252
      19 115.38077  27.94826         11.23151   6.669800 118.16473  28.78252 112.57780  28.12919 112.59681  27.11400 118.18374  27.76733
      19 115.39979  26.93267         11.24015   6.669800 118.18374  27.76733 112.59681  27.11400 112.61584  26.09802 118.20277  26.75135
      19 115.41883  25.91630         11.24880   6.669800 118.20277  26.75135 112.61584  26.09802 112.63489  25.08126 118.22182  25.73459
      19 115.43788  24.89915         11.25746   6.669800 118.22182  25.73459 112.63489  25.08126 112.65395  24.06372 118.24088  24.71705
      19 115.45695  23.88122         11.26612   6.669800 118.24088  24.71705 112.65395  24.06372 112.67302  23.04539 118.25995  23.69872
      18 105.61921 131.05745         10.92475   6.940260 108.40541 131.86982 102.82163 131.19013 102.83300 130.24509 108.41678 130.92478
      18 105.63058 130.11205         10.93316   6.940260 108.41678 130.92478 102.83300 130.24509 102.84438 129.29932 108.42817 129.97902
      18 105.64197 129.16592         10.94157   6.940260 108.42817 129.97902 102.84438 129.29932 102.85577 128.35283 108.43956 129.03252
      18 105.65337 128.21907         10.94999   6.940260 108.43956 129.03252 102.85577 128.35283 102.86717 127.40561 108.45096 128.08530
      18 105.66477 127.27148         10.95842   6.940260 108.45096 128.08530 102.86717 127.40561 102.87858 126.45766 108.46237 127.13735
      18 105.67618 126.32317         10.96685   6.940260 108.46237 127.13735 102.87858 126.45766 102.89000 125.50898 108.47378 126.18867
      18 105.68761 125.37412         10.97529   6.940260 108.47378 126.18867 102.89000 125.50898 102.90143 124.55957 108.48521 125.23926
      18 105.69904 124.42435         10.98373   6.940260 108.48521 125.23926 102.90143 124.55957 102.91286 123.60943 108.49665 124.28912
      18 105.71048 123.47384         10.99219   6.940260 108.49665 124.28912 102.91286 123.60943 102.92431 122.65856 108.50809 123.33825
      18 105.72192 122.52261         11.00065   6.940260 108.50809 123.33825 102.92431 122.65856 102.93576 121.70696 108.51954 122.38665
      18 105.73338 121.57064         11.00911   6.940260 108.51954 122.38665 102.93576 121.70696 102.94722 120.75462 108.53100 121.43432
      18 105.74485 120.61793         11.01758   6.940260 108.53100 121.43432 102.94722 120.75462 102.95869 119.80155 108.54247 120.48125
      18 105.75632 119.66450         11.02606   6.940260 108.54247 120.48125 102.95869 119.80155 102.97017 118.84775 108.55395 119.52745
      18 105.76781 118.71033         11.03455   6.940260 108.55395 119.52745 102.97017 118.84775 102.98166 117.89322 108.56544 118.57291
      18 105.77930 117.75543         11.04304   6.940260 108.56544 118.57291 102.98166 117.89322 102.99315 116.93795 108.57694 117.61764
      18 105.79080 116.79979         11.05154   6.940260 108.57694 117.61764 102.99315 116.93795 103.00466 115.98194 108.58844 116.66164
      18 105.80231 115.84342         11.06004   6.940260 108.58844 116.66164 103.00466 115.98194 103.01618 115.02520 108.59996 115.70489
      18 105.81383 114.88631         11.06855   6.940260 108.59996 115.70489 103.01618 115.02520 103.02770 114.06772 108.61148 114.74742
      18 105.82536 113.92846         11.07707   6.940260 108.61148 114.74742 103.02770 114.06772 103.03923 113.10951 108.62301 113.78920
      18 105.83689 112.96988         11.08559   6.940260 108.62301 113.78920 103.03923 113.10951 103.05077 112.15056 108.63456 112.83025
      18 105.84844 112.01056         11.09412   6.940260 108.63456 112.83025 103.05077 112.15056 103.06232 111.19087 108.64611 111.87056
      18 105.85999 111.05050         11.10266   6.940260 108.64611 111.87056 103.06232 111.19087 103.07388 110.23044 108.65766 110.91014
      18 105.87156 110.08971         11.11120   6.940260 108.65766 110.91014 103.07388 110.23044 103.08545 109.26928 108.66923 109.94897
      18 105.88313 109.12817         11.11975   6.940260 108.66923 109.94897 103.08545 109.26928 103.09703 108.30737 108.68081 108.98706
      18 105.89471 108.16589         11.12831   6.940260 108.68081 108.98706 103.09703 108.30737 103.10861 107.34472 108.69239 108.02442
      18 105.90630 107.20288         11.13688   6.940260 108.69239 108.02442 103.10861 107.34472 103.12021 106.38134 108.70399 107.06103
      18 105.91790 106.23912         11.14545   6.940260 108.70399 107.06103 103.12021 106.38134 103.13181 105.41721 108.71559 106.09690
      18 105.92951 105.27462         11.15402   6.940260 108.71559 106.09690 103.13181 105.41721 103.14342 104.45234 108.72721 105.13203
      18 105.94112 104.30938         11.16261   6.940260 108.72721 105.13203 103.14342 104.45234 103.15504 103.48672 108.73883 104.16642
      18 105.95275 103.34339         11.17120   6.940260 108.73883 104.16642 103.15504 103.48672 103.16667 102.52037 108.75046 103.20006
      18 105.96438 102.37667         11.17979   6.940260 108.75046 103.20006 103.16667 102.52037 103.17831 101.55327 108.76210 102.23296
      18 105.97603 101.40919         11.18839   6.940260 108.76210 102.23296 103.17831 101.55327 103.18996 100.58542 108.77374 101.26512
      18 105.98768 100.44098         11.19700   6.940260 108.77374 101.26512 103.18996 100.58542 103.20162  99.61684 108.78540 100.29653
      18 105.99934  99.47202         11.20562   6.940260 108.78540 100.29653 103.20162  99.61684 103.21328  98.64750 108.79707  99.32720
      18 106.01101  98.50231         11.21424   6.940260 108.79707  99.32720 103.21328  98.64750 103.22496  97.67742 108.80874  98.35712
      18 106.02269  97.53186         11.22287   6.940260 108.80874  98.35712 103.22496  97.67742 103.23664  96.70660 108.82043  97.38629
      18 106.03438  96.56066         11.23151   6.940260 108.82043  97.38629 103.23664  96.70660 103.24834  95.73502 108.83212  96.41472
      18 106.04608  95.58871         11.24015   6.940260 108.83212  96.41472 103.24834  95.73502 103.26004  94.76270 108.84382  95.44239
      18 106.05779  94.61601         11.24880   6.940260 108.84382  95.44239 103.26004  94.76270 103.27175  93.78963 108.85553  94.46932
      18 106.06950  93.64257         11.25746   6.940260 108.85553  94.46932 103.27175  93.78963 103.28347  92.81581 108.86725  93.49551
      18 106.08123  92.66838         11.26612   6.940260 108.86725  93.49551 103.28347  92.81581 103.29520  91.84125 108.87898  92.52094
      18 106.09296  91.69343         11.27479   6.940260 108.87898  92.52094 103.29520  91.84125 103.30694  90.86593 108.89072  91.54562
      18 106.10470  90.71774         11.28347   6.940260 108.89072  91.54562 103.30694  90.86593 103.31868  89.88986 108.90247  90.56955
      18 106.11645  89.74130         11.29215   6.940260 108.90247  90.56955 103.31868  89.88986 103.33044  88.91304 108.91422  89.59273
      18 106.12821  88.76410         11.30084   6.940260 108.91422  89.59273 103.33044  88.91304 103.34220  87.93547 108.92599  88.61516
      18 106.13998  87.78615         11.30954   6.940260 108.92599  88.61516 103.34220  87.93547 103.35398  86.95715 108.93776  87.63684
      18 106.15176  86.80745         11.31824   6.940260 108.93776  87.63684 103.35398  86.95715 103.36576  85.97807 108.94955  86.65776
      18 106.16355  85.82800         11.32695   6.940260 108.94955  86.65776 103.36576  85.97807 103.37755  84.99824 108.96134  85.67793
      18 106.17535  84.84780         11.33567   6.940260 108.96134  85.67793 103.37755  84.99824 103.38936  84.01766 108.97314  84.69735
      18 106.18715  83.86684         11.34439   6.940260 108.97314  84.69735 103.38936  84.01766 103.40117  83.03632 108.98495  83.71601
      18 106.19897  82.88512         11.35312   6.940260 108.98495  83.71601 103.40117  83.03632 103.41299  82.05423 108.99677  82.73392
      18 106.21079  81.90265         11.36185   6.940260 108.99677  82.73392 103.41299  82.05423 103.42482  81.07138 109.00860  81.75107
      18 106.22263  80.91942         11.37060   6.940260 109.00860  81.75107 103.42482  81.07138 103.43665  80.08777 109.02044  80.76747
      18 106.23447  79.93544         11.37935   6.940260 109.02044  80.76747 103.43665  80.08777 103.44850  79.10341 109.03228  79.78310
      18 106.24632  78.95070         11.38810   6.940260 109.03228  79.78310 103.44850  79.10341 103.46036  78.11829 109.04414  78.79798
      18 106.25818  77.96520         11.39687   6.940260 109.04414  78.79798 103.46036  78.11829 103.47222  77.13241 109.05601  77.81211
      18 106.27005  76.97894         11.40564   6.940260 109.05601  77.81211 103.47222  77.13241 103.48410  76.14578 109.06788  76.82547
      18 106.28193  75.99192         11.41442   6.940260 109.06788  76.82547 103.48410  76.14578 103.49598  75.15838 109.07976  75.83807
      18 106.29382  75.00415         11.42320   6.940260 109.07976  75.83807 103.49598  75.15838 103.50787  74.17022 109.09166  74.84992
      18 106.30571  74.01561         11.43199   6.940260 109.09166  74.84992 103.50787  74.17022 103.51977  73.18131 109.10356  73.86100
      18 106.31762  73.02632         11.44079   6.940260 109.10356  73.86100 103.51977  73.18131 103.53168  72.19163 109.11547  72.87133
      18 106.32954  72.03626         11.44959   6.940260 109.11547  72.87133 103.53168  72.19163 103.54360  71.20119 109.12739  71.88089
      18 106.34146  71.04544         11.45840   6.940260 109.12739  71.88089 103.54360  71.20119 103.55553  70.20999 109.13932  70.88969
      18 106.35340  70.05386         11.46722   6.940260 109.13932  70.88969 103.55553  70.20999 103.56747  69.21803 109.15126  69.89772
      18 106.36534  69.06151         11.47604   6.940260 109.15126  69.89772 103.56747  69.21803 103.57942  68.22530 109.16320  68.90500
      18 106.37729  68.06840         11.48487   6.940260 109.16320  68.90500 103.57942  68.22530 103.59138  67.23181 109.17516  67.91151
      18 106.38925  67.07453         11.49371   6.940260 109.17516  67.91151 103.59138  67.23181 103.60334  66.23756 109.18713  66.91725
      18 106.40122  66.07989         11.50256   6.940260 109.18713  66.91725 103.60334  66.23756 103.61532  65.24254 109.19910  65.92223
      18 106.41320  65.08449         11.51141   6.940260 109.19910  65.92223 103.61532  65.24254 103.62730  64.24675 109.21109  64.92644
      18 106.42519  64.08832         11.52027   6.940260 109.21109  64.92644 103.62730  64.24675 103.63930  63.25020 109.22308  63.92989
      18 106.43719  63.09139         11.52913   6.940260 109.22308  63.92989 103.63930  63.25020 103.65130  62.25288 109.23508  62.93257
      18 106.44920  62.09368         11.53800   6.940260 109.23508  62.93257 103.65130  62.25288 103.66331  61.25479 109.24710  61.93449
      18 106.46121  61.09521         11.54688   6.940260 109.24710  61.93449 103.66331  61.25479 103.67533  60.25594 109.25912  60.93563
      18 106.47324  60.09597         11.55577   6.940260 109.25912  60.93563 103.67533  60.25594 103.68736  59.25631 109.27115  59.93601
      18 106.48528  59.09596         11.56466   6.940260 109.27115  59.93601 103.68736  59.25631 103.69940  58.25592 109.28319  58.93561
      18 106.49732  58.09519         11.57356   6.940260 109.28319  58.93561 103.69940  58.25592 103.71145  57.25476 109.29524  57.93445
      18 106.50937  57.09364         11.58247   6.940260 109.29524  57.93445 103.71145  57.25476 103.72351  56.25283 109.30729  56.93252
      18 106.52144  56.09132         11.59138   6.940260 109.30729  56.93252 103.72351  56.25283 103.73558  55.25012 109.31936  55.92982
      18 106.53351  55.08823         11.60030   6.940260 109.31936  55.92982 103.73558  55.25012 103.74766  54.24665 109.33144  54.92634
      18 106.54559  54.08437         11.60923   6.940260 109.33144  54.92634 103.74766  54.24665 103.75974  53.24240 109.34353  53.92209
      18 106.55768  53.07974         11.61816   6.940260 109.34353  53.92209 103.75974  53.24240 103.77184  52.23738 109.35562  52.91707
      18 106.56978  52.07433         11.62710   6.940260 109.35562  52.91707 103.77184  52.23738 103.78394  51.23159 109.36773  51.91128
      18 106.58189  51.06815         11.63605   6.940260 109.36773  51.91128 103.78394  51.23159 103.79606  50.22502 109.37984  50.90471
      18 106.59401  50.06119         11.64500   6.940260 109.37984  50.90471 103.79606  50.22502 103.80818  49.21767 109.39196  49.89737
      18 106.60614  49.05346         11.65396   6.940260 109.39196  49.89737 103.80818  49.21767 103.82031  48.20956 109.40410  48.88925
      18 106.61828  48.04496         11.66293   6.940260 109.40410  48.88925 103.82031  48.20956 103.83246  47.20066 109.41624  47.88036
      18 106.63042  47.03568         11.67191   6.940260 109.41624  47.88036 103.83246  47.20066 103.84461  46.19099 109.42839  46.87069
      18 106.64258  46.02562         11.68089   6.940260 109.42839  46.87069 103.84461  46.19099 103.85677  45.18055 109.44055  45.86024
      18 106.65475  45.01478         11.68988   6.940260 109.44055  45.86024 103.85677  45.18055 103.86894  44.16932 109.45272  44.84902
      18 106.66692  44.00317         11.69887   6.940260 109.45272  44.84902 103.86894  44.16932 103.88112  43.15732 109.46490  43.83701
      18 106.67910  42.99078         11.70787   6.940260 109.46490  43.83701 103.88112  43.15732 103.89331  42.14454 109.47709  42.82423
      18 106.69130  41.97761         11.71688   6.940260 109.47709  42.82423 103.89331  42.14454 103.90551  41.13098 109.48929  41.81067
      18 106.70350  40.96366         11.72590   6.940260 109.48929  41.81067 103.90551  41.13098 103.91771  40.11664 109.50150  40.79633
      18 106.71571  39.94892         11.73492   6.940260 109.50150  40.79633 103.91771  40.11664 103.92993  39.10152 109.51371  39.78121
      18 106.72794  38.93341         11.74395   6.940260 109.51371  39.78121 103.92993  39.10152 103.94216  38.08562 109.52594  38.76531
      18 106.74017  37.91712         11.75299   6.940260 109.52594  38.76531 103.94216  38.08562 103.95439  37.06893 109.53818  37.74862
      18 106.75241  36.90005         11.76204   6.940260 109.53818  37.74862 103.95439  37.06893 103.96664  36.05147 109.55042  36.73116
      18 106.76466  35.88219         11.77109   6.940260 109.55042  36.73116 103.96664  36.05147 103.97889  35.03322 109.56268  35.71291
      18 106.77692  34.86355         11.78015   6.940260 109.56268  35.71291 103.97889  35.03322 103.99116  34.01418 109.57494  34.69388
      18 106.78919  33.84412         11.78921   6.940260 109.57494  34.69388 103.99116  34.01418 104.00343  32.99437 109.58721  33.67406
      18 106.80146  32.82391         11.79828   6.940260 109.58721  33.67406 104.00343  32.99437 104.01571  31.97376 109.59950  32.65346
      18 106.81375  31.80292         11.80736   6.940260 109.59950  32.65346 104.01571  31.97376 104.02801  30.95238 109.61179  31.63207
      18 106.82605  30.78114         11.81645   6.940260 109.61179  31.63207 104.02801  30.95238 104.04031  29.93020 109.62409  30.60990
      18 106.83836  29.75857         11.82554   6.940260 109.62409  30.60990 104.04031  29.93020 104.05262  28.90724 109.63640  29.58694
      18 106.85067  28.73522         11.83464   6.940260 109.63640  29.58694 104.05262  28.90724 104.06494  27.88350 109.64872  28.56319
      18 106.86300  27.71108         11.84375   6.940260 109.64872  28.56319 104.06494  27.88350 104.07727  26.85896 109.66106  27.53866
      18 106.87533  26.68615         11.85286   6.940260 109.66106  27.53866 104.07727  26.85896 104.08961  25.83364 109.67340  26.51333
      18 106.88768  25.66043         11.86198   6.940260 109.67340  26.51333 104.08961  25.83364 104.10196  24.80753 109.68574  25.48722
      18 106.90003  24.63392         11.87111   6.940260 109.68574  25.48722 104.10196  24.80753 104.11432  23.78062 109.69810  24.46032
      18 106.91240  23.60663         11.88025   6.940260 109.69810  24.46032 104.11432  23.78062 104.12669  22.75293 109.71047  23.43263
      18 106.92477  22.57854         11.88939   6.940260 109.71047  23.43263 104.12669  22.75293 104.13907  21.72445 109.72285  22.40414
      18 106.93715  21.54966         11.89854   6.940260 109.72285  22.40414 104.13907  21.72445 104.15145  20.69518 109.73524  21.37487
      18 106.94954  20.51999         11.90769   6.940260 109.73524  21.37487 104.15145  20.69518 104.16385  19.66511 109.74763  20.34480
      18 106.96195  19.48953         11.91686   6.940260 109.74763  20.34480 104.16385  19.66511 104.17626  18.63425 109.76004  19.31394
      18 106.97436  18.45827         11.92603   6.940260 109.76004  19.31394 104.17626  18.63425 104.18867  17.60260 109.77246  18.28229
      18 106.98678  17.42622         11.93521   6.940260 109.77246  18.28229 104.18867  17.60260 104.20110  16.57015 109.78488  17.24985
      18 106.99921  16.39338         11.94439   6.940260 109.78488  17.24985 104.20110  16.57015 104.21353  15.53691 109.79732  16.21660
      18 107.01165  15.35974         11.95358   6.940260 109.79732  16.21660 104.21353  15.53691 104.22598  14.50288 109.80976  15.18257
      17  96.84371 120.19141         11.65396   7.292520  99.62954 121.02508  94.05004 120.31107  94.05787 119.35775  99.63737 120.07176
      17  96.85154 119.23772         11.66293   7.292520  99.63737 120.07176  94.05787 119.35775  94.06571 118.40369  99.64521 119.11770
      17  96.85939 118.28330         11.67191   7.292520  99.64521 119.11770  94.06571 118.40369  94.07356 117.44889  99.65306 118.16290
      17  96.86724 117.32814         11.68089   7.292520  99.65306 118.16290  94.07356 117.44889  94.08142 116.49337  99.66091 117.20738
      17  96.87509 116.37224         11.68988   7.292520  99.66091 117.20738  94.08142 116.49337  94.08927 115.53710  99.66877 116.25111
      17  96.88296 115.41561         11.69887   7.292520  99.66877 116.25111  94.08927 115.53710  94.09714 114.58010  99.67664 115.29411
      17  96.89083 114.45824         11.70787   7.292520  99.67664 115.29411  94.09714 114.58010  94.10501 113.62237  99.68451 114.33638
      17  96.89870 113.50014         11.71688   7.292520  99.68451 114.33638  94.10501 113.62237  94.11289 112.66390  99.69239 113.37791
      17  96.90658 112.54130         11.72590   7.292520  99.69239 113.37791  94.11289 112.66390  94.12077 111.70469  99.70027 112.41870
      17  96.91447 111.58172         11.73492   7.292520  99.70027 112.41870  94.12077 111.70469  94.12866 110.74474  99.70816 111.45875
      17  96.92236 110.62140         11.74395   7.292520  99.70816 111.45875  94.12866 110.74474  94.13656 109.78405  99.71606 110.49806
      17  96.93026 109.66034         11.75299   7.292520  99.71606 110.49806  94.13656 109.78405  94.14446 108.82263  99.72396 109.53664
      17  96.93816 108.69855         11.76204   7.292520  99.72396 109.53664  94.14446 108.82263  94.15237 107.86046  99.73187 108.57447
      17  96.94608 107.73601         11.77109   7.292520  99.73187 108.57447  94.15237 107.86046  94.16028 106.89755  99.73978 107.61156
      17  96.95399 106.77274         11.78015   7.292520  99.73978 107.61156  94.16028 106.89755  94.16820 105.93391  99.74770 106.64792
      17  96.96192 105.80872         11.78921   7.292520  99.74770 106.64792  94.16820 105.93391  94.17613 104.96952  99.75563 105.68353
      17  96.96985 104.84396         11.79828   7.292520  99.75563 105.68353  94.17613 104.96952  94.18406 104.00439  99.76356 104.71840
      17  96.97778 103.87846         11.80736   7.292520  99.76356 104.71840  94.18406 104.00439  94.19200 103.03851  99.77150 103.75252
      17  96.98572 102.91221         11.81645   7.292520  99.77150 103.75252  94.19200 103.03851  94.19994 102.07190  99.77944 102.78591
      17  96.99367 101.94522         11.82554   7.292520  99.77944 102.78591  94.19994 102.07190  94.20790 101.10454  99.78739 101.81855
      17  97.00162 100.97749         11.83464   7.292520  99.78739 101.81855  94.20790 101.10454  94.21585 100.13643  99.79535 100.85044
      17  97.00958 100.00901         11.84375   7.292520  99.79535 100.85044  94.21585 100.13643  94.22381  99.16758  99.80331  99.88159
      17  97.01755  99.03979         11.85286   7.292520  99.80331  99.88159  94.22381  99.16758  94.23178  98.19798  99.81128  98.91199
      17  97.02552  98.06982         11.86198   7.292520  99.81128  98.91199  94.23178  98.19798  94.23976  97.22764  99.81926  97.94165
      17  97.03350  97.09910         11.87111   7.292520  99.81926  97.94165  94.23976  97.22764  94.24774  96.25655  99.82724  96.97056
      17  97.04148  96.12764         11.88025   7.292520  99.82724  96.97056  94.24774  96.25655  94.25573  95.28472  99.83523  95.99873
      17  97.04947  95.15543         11.88939   7.292520  99.83523  95.99873  94.25573  95.28472  94.26372  94.31213  99.84322  95.02614
      17  97.05747  94.18247         11.89854   7.292520  99.84322  95.02614  94.26372  94.31213  94.27172  93.33880  99.85122  94.05281
      17  97.06547  93.20877         11.90769   7.292520  99.85122  94.05281  94.27172  93.33880  94.27973  92.36472  99.85923  93.07873
      17  97.07348  92.23431         11.91686   7.292520  99.85923  93.07873  94.27973  92.36472  94.28774  91.38989  99.86724  92.10390
      17  97.08150  91.25911         11.92603   7.292520  99.86724  92.10390  94.28774  91.38989  94.29576  90.41431  99.87526  91.12832
      17  97.08952  90.28315         11.93521   7.292520  99.87526  91.12832  94.29576  90.41431  94.30378  89.43798  99.88328  90.15199
      17  97.09755  89.30644         11.94439   7.292520  99.88328  90.15199  94.30378  89.43798  94.31181  88.46090  99.89131  89.17491
      17  97.10558  88.32898         11.95358   7.292520  99.89131  89.17491  94.31181  88.46090  94.31985  87.48306  99.89935  88.19707
      17  97.11362  87.35077         11.96278   7.292520  99.89935  88.19707  94.31985  87.48306  94.32789  86.50447  99.90739  87.21848
      17  97.12167  86.37181         11.97199   7.292520  99.90739  87.21848  94.32789  86.50447  94.33594  85.52513  99.91544  86.23914
      17  97.12972  85.39209         11.98120   7.292520  99.91544  86.23914  94.33594  85.52513  94.34400  84.54504  99.92350  85.25905
      17  97.13778  84.41162         11.99042   7.292520  99.92350  85.25905  94.34400  84.54504  94.35206  83.56419  99.93156  84.27820
      17  97.14584  83.43039         11.99965   7.292520  99.93156  84.27820  94.35206  83.56419  94.36013  82.58259  99.93963  83.29660
      17  97.15391  82.44841         12.00888   7.292520  99.93963  83.29660  94.36013  82.58259  94.36820  81.60023  99.94770  82.31424
      17  97.16199  81.46568         12.01812   7.292520  99.94770  82.31424  94.36820  81.60023  94.37628  80.61712  99.95578  81.33113
      17  97.17007  80.48219         12.02737   7.292520  99.95578  81.33113  94.37628  80.61712  94.38437  79.63324  99.96387  80.34725
      17  97.17816  79.49794         12.03662   7.292520  99.96387  80.34725  94.38437  79.63324  94.39246  78.64862  99.97196  79.36263
      17  97.18626  78.51293         12.04589   7.292520  99.97196  79.36263  94.39246  78.64862  94.40056  77.66323  99.98006  78.37724
      17  97.19436  77.52716         12.05516   7.292520  99.98006  78.37724  94.40056  77.66323  94.40866  76.67709  99.98816  77.39110
      17  97.20247  76.54064         12.06443   7.292520  99.98816  77.39110  94.40866  76.67709  94.41677  75.69018  99.99627  76.40419
      17  97.21058  75.55336         12.07372   7.292520  99.99627  76.40419  94.41677  75.69018  94.42489  74.70252 100.00439  75.41653
      17  97.21870  74.56532         12.08301   7.292520 100.00439  75.41653  94.42489  74.70252  94.43302  73.71410 100.01251  74.42811
      17  97.22683  73.57651         12.09231   7.292520 100.01251  74.42811  94.43302  73.71410  94.44115  72.72492 100.02064  73.43893
      17  97.23496  72.58695         12.10161   7.292520 100.02064  73.43893  94.44115  72.72492  94.44928  71.73497 100.02878  72.44898
      17  97.24310  71.59663         12.11092   7.292520 100.02878  72.44898  94.44928  71.73497  94.45742  70.74427 100.03692  71.45828
      17  97.25125  70.60554         12.12024   7.292520 100.03692  71.45828  94.45742  70.74427  94.46557  69.75280 100.04507  70.46681
      17  97.25940  69.61369         12.12957   7.292520 100.04507  70.46681  94.46557  69.75280  94.47373  68.76057 100.05323  69.47458
      17  97.26756  68.62108         12.13890   7.292520 100.05323  69.47458  94.47373  68.76057  94.48189  67.76757 100.06139  68.48158
      17  97.27572  67.62770         12.14825   7.292520 100.06139  68.48158  94.48189  67.76757  94.49006  66.77381 100.06956  67.48782
      17  97.28389  66.63356         12.15759   7.292520 100.06956  67.48782  94.49006  66.77381  94.49823  65.77929 100.07773  66.49330
      17  97.29207  65.63865         12.16695   7.292520 100.07773  66.49330  94.49823  65.77929  94.50641  64.78400 100.08591  65.49801
      17  97.30025  64.64298         12.17631   7.292520 100.08591  65.49801  94.50641  64.78400  94.51460  63.78795 100.09410  64.50196
      17  97.30844  63.64654         12.18568   7.292520 100.09410  64.50196  94.51460  63.78795  94.52279  62.79113 100.10229  63.50514
      17  97.31664  62.64934         12.19506   7.292520 100.10229  63.50514  94.52279  62.79113  94.53099  61.79354 100.11049  62.50755
      17  97.32484  61.65136         12.20444   7.292520 100.11049  62.50755  94.53099  61.79354  94.53919  60.79518 100.11869  61.50919
      17  97.33305  60.65262         12.21384   7.292520 100.11869  61.50919  94.53919  60.79518  94.54741  59.79606 100.12691  60.51007
      17  97.34127  59.65312         12.22323   7.292520 100.12691  60.51007  94.54741  59.79606  94.55562  58.79616 100.13512  59.51017
      17  97.34949  58.65284         12.23264   7.292520 100.13512  59.51017  94.55562  58.79616  94.56385  57.79550 100.14335  58.50951
      17  97.35771  57.65179         12.24205   7.292520 100.14335  58.50951  94.56385  57.79550  94.57208  56.79407 100.15158  57.50808
      17  97.36595  56.64997         12.25147   7.292520 100.15158  57.50808  94.57208  56.79407  94.58032  55.79187 100.15982  56.50588
      17  97.37419  55.64738         12.26090   7.292520 100.15982  56.50588  94.58032  55.79187  94.58856  54.78889 100.16806  55.50290
      17  97.38243  54.64402         12.27034   7.292520 100.16806  55.50290  94.58856  54.78889  94.59681  53.78515 100.17631  54.49916
      17  97.39069  53.63989         12.27978   7.292520 100.17631  54.49916  94.59681  53.78515  94.60507  52.78063 100.18457  53.49464
      17  97.39895  52.63499         12.28923   7.292520 100.18457  53.49464  94.60507  52.78063  94.61333  51.77533 100.19283  52.48934
      17  97.40721  51.62931         12.29869   7.292520 100.19283  52.48934  94.61333  51.77533  94.62160  50.76927 100.20110  51.48328
      17  97.41548  50.62285         12.30815   7.292520 100.20110  51.48328  94.62160  50.76927  94.62987  49.76243 100.20937  50.47644
      17  97.42376  49.61563         12.31762   7.292520 100.20937  50.47644  94.62987  49.76243  94.63815  48.75482 100.21765  49.46883
      17  97.43205  48.60763         12.32710   7.292520 100.21765  49.46883  94.63815  48.75482  94.64644  47.74643 100.22594  48.46044
      17  97.44034  47.59885         12.33659   7.292520 100.22594  48.46044  94.64644  47.74643  94.65474  46.73726 100.23424  47.45127
      17  97.44864  46.58929         12.34608   7.292520 100.23424  47.45127  94.65474  46.73726  94.66304  45.72732 100.24254  46.44133
      17  97.45694  45.57896         12.35558   7.292520 100.24254  46.44133  94.66304  45.72732  94.67134  44.71660 100.25084  45.43061
      17  97.46525  44.56786         12.36509   7.292520 100.25084  45.43061  94.67134  44.71660  94.67966  43.70510 100.25916  44.41911
      17  97.47357  43.55597         12.37460   7.292520 100.25916  44.41911  94.67966  43.70510  94.68798  42.69283 100.26748  43.40684
      17  97.48189  42.54330         12.38413   7.292520 100.26748  43.40684  94.68798  42.69283  94.69630  41.67977 100.27580  42.39378
      17  97.49022  41.52986         12.39366   7.292520 100.27580  42.39378  94.69630  41.67977  94.70464  40.66594 100.28414  41.37995
      17  97.49855  40.51564         12.40319   7.292520 100.28414  41.37995  94.70464  40.66594  94.71297  39.65132 100.29247  40.36533
      17  97.50690  39.50063         12.41274   7.292520 100.29247  40.36533  94.71297  39.65132  94.72132  38.63593 100.30082  39.34994
      17  97.51525  38.48484         12.42229   7.292520 100.30082  39.34994  94.72132  38.63593  94.72967  37.61975 100.30917  38.33376
      17  97.52360  37.46828         12.43185   7.292520 100.30917  38.33376  94.72967  37.61975  94.73803  36.60279 100.31753  37.31680
      17  97.53196  36.45093         12.44142   7.292520 100.31753  37.31680  94.73803  36.60279  94.74640  35.58505 100.32589  36.29906
      17  97.54033  35.43280         12.45099   7.292520 100.32589  36.29906  94.74640  35.58505  94.75477  34.56653 100.33427  35.28054
      17  97.54870  34.41388         12.46057   7.292520 100.33427  35.28054  94.75477  34.56653  94.76314  33.54722 100.34264  34.26123
      17  97.55709  33.39418         12.47016   7.292520 100.34264  34.26123  94.76314  33.54722  94.77153  32.52713 100.35103  33.24114
      17  97.56547  32.37369         12.47976   7.292520 100.35103  33.24114  94.77153  32.52713  94.77992  31.50625 100.35942  32.22026
      17  97.57387  31.35242         12.48936   7.292520 100.35942  32.22026  94.77992  31.50625  94.78832  30.48459 100.36781  31.19860
      17  97.58227  30.33037         12.49897   7.292520 100.36781  31.19860  94.78832  30.48459  94.79672  29.46214 100.37622  30.17615
      17  97.59067  29.30753         12.50859   7.292520 100.37622  30.17615  94.79672  29.46214  94.80513  28.43890 100.38463  29.15291
      17  97.59909  28.28390         12.51821   7.292520 100.38463  29.15291  94.80513  28.43890  94.81355  27.41488 100.39304  28.12889
      17  97.60751  27.25948         12.52785   7.292520 100.39304  28.12889  94.81355  27.41488  94.82197  26.39007 100.40147  27.10408
      17  97.61593  26.23427         12.53749   7.292520 100.40147  27.10408  94.82197  26.39007  94.83040  25.36447 100.40990  26.07848
      17  97.62437  25.20828         12.54714   7.292520 100.40990  26.07848  94.83040  25.36447  94.83883  24.33808 100.41833  25.05209
      17  97.63280  24.18149         12.55679   7.292520 100.41833  25.05209  94.83883  24.33808  94.84728  23.31090 100.42677  24.02491
      17  97.64125  23.15392         12.56645   7.292520 100.42677  24.02491  94.84728  23.31090  94.85572  22.28293 100.43522  22.99694
      17  97.64970  22.12556         12.57612   7.292520 100.43522  22.99694  94.85572  22.28293  94.86418  21.25417 100.44368  21.96818
      17  97.65816  21.09640         12.58580   7.292520 100.44368  21.96818  94.86418  21.25417  94.87264  20.22462 100.45214  20.93863
      17  97.66663  20.06645         12.59549   7.292520 100.45214  20.93863  94.87264  20.22462  94.88111  19.19427 100.46061  19.90828
      17  97.67510  19.03571         12.60518   7.292520 100.46061  19.90828  94.88111  19.19427  94.88958  18.16314 100.46908  18.87715
      17  97.68358  18.00418         12.61488   7.292520 100.46908  18.87715  94.88958  18.16314  94.89807  17.13121 100.47757  17.84522
      17  97.69206  16.97185         12.62459   7.292520 100.47757  17.84522  94.89807  17.13121  94.90655  16.09848 100.48605  16.81249
      17  97.70055  15.93873         12.63430   7.292520 100.48605  16.81249  94.90655  16.09848  94.91505  15.06496 100.49455  15.77897
      17  97.70905  14.90481         12.64402   7.292520 100.49455  15.77897  94.91505  15.06496  94.92355  14.03065 100.50305  14.74466
      17  97.71755  13.87010         12.65375   7.292520 100.50305  14.74466  94.92355  14.03065  94.93206  12.99553 100.51156  13.70954
      16  87.31352 127.12718         12.31762   7.726600  90.10513 127.98801  84.53120 127.23175  84.52190 126.26635  90.09583 127.02261
      16  87.30420 126.16142         12.32710   7.726600  90.09583 127.02261  84.52190 126.26635  84.51258 125.30022  90.08651 126.05648
      16  87.29489 125.19491         12.33659   7.726600  90.08651 126.05648  84.51258 125.30022  84.50326 124.33334  90.07719 125.08960
      16  87.28556 124.22766         12.34608   7.726600  90.07719 125.08960  84.50326 124.33334  84.49393 123.36572  90.06786 124.12198
      16  87.27623 123.25967         12.35558   7.726600  90.06786 124.12198  84.49393 123.36572  84.48460 122.39735  90.05853 123.15361
      16  87.26689 122.29093         12.36509   7.726600  90.05853 123.15361  84.48460 122.39735  84.47525 121.42824  90.04918 122.18450
      16  87.25754 121.32144         12.37460   7.726600  90.04918 122.18450  84.47525 121.42824  84.46590 120.45838  90.03983 121.21464
      16  87.24819 120.35121         12.38413   7.726600  90.03983 121.21464  84.46590 120.45838  84.45655 119.48778  90.03048 120.24404
      16  87.23883 119.38023         12.39366   7.726600  90.03048 120.24404  84.45655 119.48778  84.44718 118.51643  90.02111 119.27269
      16  87.22946 118.40851         12.40319   7.726600  90.02111 119.27269  84.44718 118.51643  84.43781 117.54433  90.01174 118.30059
      16  87.22009 117.43604         12.41274   7.726600  90.01174 118.30059  84.43781 117.54433  84.42843 116.57148  90.00236 117.32774
      16  87.21070 116.46282         12.42229   7.726600  90.00236 117.32774  84.42843 116.57148  84.41905 115.59789  89.99298 116.35415
      16  87.20132 115.48885         12.43185   7.726600  89.99298 116.35415  84.41905 115.59789  84.40965 114.62354  89.98358 115.37980
      16  87.19192 114.51413         12.44142   7.726600  89.98358 115.37980  84.40965 114.62354  84.40025 113.64845  89.97418 114.40471
      16  87.18251 113.53866         12.45099   7.726600  89.97418 114.40471  84.40025 113.64845  84.39085 112.67261  89.96478 113.42887
      16  87.17310 112.56244         12.46057   7.726600  89.96478 113.42887  84.39085 112.67261  84.38143 111.69601  89.95536 112.45227
      16  87.16368 111.58547         12.47016   7.726600  89.95536 112.45227  84.38143 111.69601  84.37201 110.71866  89.94594 111.47492
      16  87.15426 110.60774         12.47976   7.726600  89.94594 111.47492  84.37201 110.71866  84.36258 109.74056  89.93651 110.49683
      16  87.14483 109.62927         12.48936   7.726600  89.93651 110.49683  84.36258 109.74056  84.35314 108.76171  89.92707 109.51797
      16  87.13539 108.65004         12.49897   7.726600  89.92707 109.51797  84.35314 108.76171  84.34370 107.78211  89.91763 108.53837
      16  87.12594 107.67006         12.50859   7.726600  89.91763 108.53837  84.34370 107.78211  84.33425 106.80175  89.90818 107.55801
      16  87.11648 106.68932         12.51821   7.726600  89.90818 107.55801  84.33425 106.80175  84.32479 105.82064  89.89872 106.57690
      16  87.10702 105.70783         12.52785   7.726600  89.89872 106.57690  84.32479 105.82064  84.31532 104.83877  89.88925 105.59503
      16  87.09755 104.72559         12.53749   7.726600  89.88925 105.59503  84.31532 104.83877  84.30585 103.85615  89.87978 104.61241
      16  87.08807 103.74259         12.54714   7.726600  89.87978 104.61241  84.30585 103.85615  84.29637 102.87277  89.87030 103.62903
      16  87.07859 102.75883         12.55679   7.726600  89.87030 103.62903  84.29637 102.87277  84.28688 101.88863  89.86081 102.64489
      16  87.06910 101.77431         12.56645   7.726600  89.86081 102.64489  84.28688 101.88863  84.27739 100.90374  89.85132 101.66000
      16  87.05960 100.78904         12.57612   7.726600  89.85132 101.66000  84.27739 100.90374  84.26788  99.91808  89.84181 100.67434
      16  87.05010  99.80301         12.58580   7.726600  89.84181 100.67434  84.26788  99.91808  84.25838  98.93167  89.83231  99.68793
      16  87.04058  98.81622         12.59549   7.726600  89.83231  99.68793  84.25838  98.93167  84.24886  97.94450  89.82279  98.70076
      16  87.03106  97.82867         12.60518   7.726600  89.82279  98.70076  84.24886  97.94450  84.23933  96.95657  89.81326  97.71283
      16  87.02153  96.84036         12.61488   7.726600  89.81326  97.71283  84.23933  96.95657  84.22980  95.96789  89.80373  96.72415
      16  87.01200  95.85129         12.62459   7.726600  89.80373  96.72415  84.22980  95.96789  84.22026  94.97844  89.79419  95.73470
      16  87.00246  94.86146         12.63430   7.726600  89.79419  95.73470  84.22026  94.97844  84.21072  93.98822  89.78465  94.74448
      16  86.99291  93.87087         12.64402   7.726600  89.78465  94.74448  84.21072  93.98822  84.20116  92.99725  89.77509  93.75351
      16  86.98335  92.87951         12.65375   7.726600  89.77509  93.75351  84.20116  92.99725  84.19160  92.00551  89.76553  92.76177
      16  86.97378  91.88740         12.66349   7.726600  89.76553  92.76177  84.19160  92.00551  84.18204  91.01302  89.75597  91.76928
      16  86.96421  90.89451         12.67324   7.726600  89.75597  91.76928  84.18204  91.01302  84.17246  90.01975  89.74639  90.77601
      16  86.95463  89.90087         12.68299   7.726600  89.74639  90.77601  84.17246  90.01975  84.16288  89.02573  89.73681  89.78199
      16  86.94505  88.90646         12.69275   7.726600  89.73681  89.78199  84.16288  89.02573  84.15329  88.03093  89.72722  88.78719
      16  86.93545  87.91128         12.70252   7.726600  89.72722  88.78719  84.15329  88.03093  84.14369  87.03538  89.71762  87.79164
      16  86.92585  86.91534         12.71229   7.726600  89.71762  87.79164  84.14369  87.03538  84.13408  86.03905  89.70801  86.79531
      16  86.91624  85.91864         12.72207   7.726600  89.70801  86.79531  84.13408  86.03905  84.12447  85.04196  89.69840  85.79822
      16  86.90663  84.92116         12.73186   7.726600  89.69840  85.79822  84.12447  85.04196  84.11485  84.04410  89.68878  84.80036
      16  86.89700  83.92292         12.74166   7.726600  89.68878  84.80036  84.11485  84.04410  84.10522  83.04548  89.67915  83.80174
      16  86.88737  82.92391         12.75147   7.726600  89.67915  83.80174  84.10522  83.04548  84.09559  82.04608  89.66952  82.80234
      16  86.87773  81.92413         12.76128   7.726600  89.66952  82.80234  84.09559  82.04608  84.08595  81.04592  89.65988  81.80218
      16  86.86809  80.92358         12.77110   7.726600  89.65988  81.80218  84.08595  81.04592  84.07630  80.04499  89.65023  80.80125
      16  86.85843  79.92227         12.78093   7.726600  89.65023  80.80125  84.07630  80.04499  84.06664  79.04328  89.64057  79.79954
      16  86.84877  78.92018         12.79076   7.726600  89.64057  79.79954  84.06664  79.04328  84.05698  78.04081  89.63091  78.79707
      16  86.83910  77.91732         12.80061   7.726600  89.63091  78.79707  84.05698  78.04081  84.04730  77.03757  89.62123  77.79383
      16  86.82943  76.91369         12.81046   7.726600  89.62123  77.79383  84.04730  77.03757  84.03762  76.03355  89.61155  76.78981
      16  86.81975  75.90928         12.82031   7.726600  89.61155  76.78981  84.03762  76.03355  84.02794  75.02876  89.60187  75.78502
      16  86.81006  74.90411         12.83018   7.726600  89.60187  75.78502  84.02794  75.02876  84.01824  74.02319  89.59217  74.77945
      16  86.80036  73.89816         12.84005   7.726600  89.59217  74.77945  84.01824  74.02319  84.00854  73.01686  89.58247  73.77312
      16  86.79065  72.89143         12.84993   7.726600  89.58247  73.77312  84.00854  73.01686  83.99883  72.00975  89.57276  72.76601
      16  86.78094  71.88393         12.85982   7.726600  89.57276  72.76601  83.99883  72.00975  83.98912  71.00186  89.56305  71.75812
      16  86.77122  70.87566         12.86972   7.726600  89.56305  71.75812  83.98912  71.00186  83.97939  69.99320  89.55332  70.74946
      16  86.76149  69.86661         12.87962   7.726600  89.55332  70.74946  83.97939  69.99320  83.96966  68.98376  89.54359  69.74002
      16  86.75176  68.85678         12.88953   7.726600  89.54359  69.74002  83.96966  68.98376  83.95992  67.97354  89.53385  68.72980
      16  86.74201  67.84618         12.89945   7.726600  89.53385  68.72980  83.95992  67.97354  83.95018  66.96255  89.52411  67.71881
      16  86.73226  66.83480         12.90938   7.726600  89.52411  67.71881  83.95018  66.96255  83.94042  65.95078  89.51435  66.70704
      16  86.72251  65.82264         12.91931   7.726600  89.51435  66.70704  83.94042  65.95078  83.93066  64.93823  89.50459  65.69449
      16  86.71274  64.80970         12.92925   7.726600  89.50459  65.69449  83.93066  64.93823  83.92089  63.92490  89.49482  64.68116
      16  86.70297  63.79598         12.93920   7.726600  89.49482  64.68116  83.92089  63.92490  83.91111  62.91080  89.48504  63.66706
      16  86.69319  62.78148         12.94916   7.726600  89.48504  63.66706  83.91111  62.91080  83.90133  61.89591  89.47526  62.65217
      16  86.68340  61.76620         12.95912   7.726600  89.47526  62.65217  83.90133  61.89591  83.89154  60.88024  89.46547  61.63650
      16  86.67360  60.75014         12.96910   7.726600  89.46547  61.63650  83.89154  60.88024  83.88174  59.86379  89.45567  60.62005
      16  86.66380  59.73330         12.97908   7.726600  89.45567  60.62005  83.88174  59.86379  83.87193  58.84655  89.44586  59.60282
      16  86.65399  58.71568         12.98907   7.726600  89.44586  59.60282  83.87193  58.84655  83.86212  57.82854  89.43605  58.58480
      16  86.64417  57.69727         12.99906   7.726600  89.43605  58.58480  83.86212  57.82854  83.85230  56.80974  89.42623  57.56600
      16  86.63435  56.67808         13.00906   7.726600  89.42623  57.56600  83.85230  56.80974  83.84247  55.79016  89.41640  56.54642
      16  86.62451  55.65810         13.01907   7.726600  89.41640  56.54642  83.84247  55.79016  83.83263  54.76979  89.40656  55.52605
      16  86.61467  54.63734         13.02909   7.726600  89.40656  55.52605  83.83263  54.76979  83.82279  53.74864  89.39672  54.50490
      16  86.60482  53.61580         13.03912   7.726600  89.39672  54.50490  83.82279  53.74864  83.81293  52.72670  89.38686  53.48296
      16  86.59497  52.59346         13.04915   7.726600  89.38686  53.48296  83.81293  52.72670  83.80307  51.70397  89.37700  52.46023
      16  86.58511  51.57035         13.05919   7.726600  89.37700  52.46023  83.80307  51.70397  83.79321  50.68046  89.36714  51.43672
      16  86.57523  50.54644         13.06924   7.726600  89.36714  51.43672  83.79321  50.68046  83.78333  49.65616  89.35726  50.41242
      16  86.56536  49.52175         13.07930   7.726600  89.35726  50.41242  83.78333  49.65616  83.77345  48.63107  89.34738  49.38733
      16  86.55547  48.49626         13.08937   7.726600  89.34738  49.38733  83.77345  48.63107  83.76356  47.60519  89.33749  48.36145
      16  86.54558  47.46999         13.09944   7.726600  89.33749  48.36145  83.76356  47.60519  83.75366  46.57853  89.32759  47.33479
      16  86.53567  46.44293         13.10952   7.726600  89.32759  47.33479  83.75366  46.57853  83.74376  45.55107  89.31769  46.30733
      16  86.52577  45.41508         13.11961   7.726600  89.31769  46.30733  83.74376  45.55107  83.73384  44.52282  89.30777  45.27908
      16  86.51585  44.38644         13.12970   7.726600  89.30777  45.27908  83.73384  44.52282  83.72392  43.49379  89.29785  44.25005
      16  86.50592  43.35700         13.13981   7.726600  89.29785  44.25005  83.72392  43.49379  83.71400  42.46396  89.28793  43.22022
      16  86.49599  42.32677         13.14992   7.726600  89.28793  43.22022  83.71400  42.46396  83.70406  41.43333  89.27799  42.18959
      16  86.48605  41.29576         13.16004   7.726600  89.27799  42.18959  83.70406  41.43333  83.69412  40.40192  89.26805  41.15818
      16  86.47611  40.26394         13.17016   7.726600  89.26805  41.15818  83.69412  40.40192  83.68416  39.36971  89.25809  40.12597
      16  86.46615  39.23134         13.18030   7.726600  89.25809  40.12597  83.68416  39.36971  83.67421  38.33670  89.24814  39.09296
      16  86.45619  38.19793         13.19044   7.726600  89.24814  39.09296  83.67421  38.33670  83.66424  37.30291  89.23817  38.05917
      16  86.44622  37.16374         13.20059   7.726600  89.23817  38.05917  83.66424  37.30291  83.65427  36.26831  89.22820  37.02457
      16  86.43624  36.12875         13.21075   7.726600  89.22820  37.02457  83.65427  36.26831  83.64428  35.23292  89.21821  35.98918
      16  86.42625  35.09296         13.22092   7.726600  89.21821  35.98918  83.64428  35.23292  83.63429  34.19673  89.20822  34.95299
      16  86.41626  34.05637         13.23109   7.726600  89.20822  34.95299  83.63429  34.19673  83.62430  33.15975  89.19823  33.91601
      16  86.40626  33.01899         13.24127   7.726600  89.19823  33.91601  83.62430  33.15975  83.61429  32.12197  89.18822  32.87823
      16  86.39625  31.98081         13.25146   7.726600  89.18822  32.87823  83.61429  32.12197  83.60428  31.08339  89.17821  31.83965
      16  86.38624  30.94183         13.26166   7.726600  89.17821  31.83965  83.60428  31.08339  83.59426  30.04400  89.16819  30.80026
      16  86.37621  29.90204         13.27186   7.726600  89.16819  30.80026  83.59426  30.04400  83.58423  29.00382  89.15816  29.76008
      16  86.36618  28.86146         13.28208   7.726600  89.15816  29.76008  83.58423  29.00382  83.57420  27.96284  89.14813  28.71910
      16  86.35614  27.82008         13.29230   7.726600  89.14813  28.71910  83.57420  27.96284  83.56415  26.92106  89.13808  27.67732
      16  86.34609  26.77790         13.30253   7.726600  89.13808  27.67732  83.56415  26.92106  83.55410  25.87848  89.12803  26.63474
      16  86.33604  25.73492         13.31276   7.726600  89.12803  26.63474  83.55410  25.87848  83.54404  24.83509  89.11797  25.59135
      16  86.32597  24.69113         13.32301   7.726600  89.11797  25.59135  83.54404  24.83509  83.53398  23.79090  89.10791  24.54716
      16  86.31590  23.64654         13.33326   7.726600  89.10791  24.54716  83.53398  23.79090  83.52390  22.74591  89.09783  23.50217
      16  86.30583  22.60114         13.34352   7.726600  89.09783  23.50217  83.52390  22.74591  83.51382  21.70012  89.08775  22.45638
      16  86.29574  21.55495         13.35379   7.726600  89.08775  22.45638  83.51382  21.70012  83.50373  20.65352  89.07766  21.40978
      16  86.28565  20.50794         13.36407   7.726600  89.07766  21.40978  83.50373  20.65352  83.49363  19.60611  89.06756  20.36237
      16  86.27555  19.46013         13.37435   7.726600  89.06756  20.36237  83.49363  19.60611  83.48353  18.55790  89.05746  19.31416
      16  86.26544  18.41152         13.38464   7.726600  89.05746  19.31416  83.48353  18.55790  83.47341  17.50888  89.04734  18.26514
      16  86.25532  17.36209         13.39494   7.726600  89.04734  18.26514  83.47341  17.50888  83.46329  16.45905  89.03722  17.21531
      16  86.24519  16.31186         13.40525   7.726600  89.03722  17.21531  83.46329  16.45905  83.45316  15.40842  89.02709  16.16468
      16  86.23506  15.26083         13.41556   7.726600  89.02709  16.16468  83.45316  15.40842  83.44303  14.35697  89.01696  15.11323
      16  86.22492  14.20898         13.42589   7.726600  89.01696  15.11323  83.44303  14.35697  83.43288  13.30472  89.00681  14.06098
      16  86.21477  13.15632         13.43622   7.726600  89.00681  14.06098  83.43288  13.30472  83.42273  12.25166  88.99666  13.00792
      16  86.20462  12.10285         13.44656   7.726600  88.99666  13.00792  83.42273  12.25166  83.41257  11.19779  88.98650  11.95405
      16  86.19445  11.04858         13.45691   7.726600  88.98650  11.95405  83.41257  11.19779  83.40240  10.14311  88.97633  10.89937
      16  86.18428   9.99349         13.46726   7.726600  88.97633  10.89937  83.40240  10.14311  83.39223   9.08761  88.96616   9.84387
      16  86.17410   8.93759         13.47763   7.726600  88.96616   9.84387  83.39223   9.08761  83.38205   8.03130  88.95598   8.78756
      16  86.16391   7.88088         13.48800   7.726600  88.95598   8.78756  83.38205   8.03130  83.37185   6.97419  88.94578   7.73045
      16  86.15372   6.82335         13.49838   7.726600  88.94578   7.73045  83.37185   6.97419  83.36166   5.91625  88.93559   6.67251
      16  86.14352   5.76501         13.50876   7.726600  88.93559   6.67251  83.36166   5.91625  83.35145   4.85751  88.92538   5.61377
      15  75.71867 127.98142         13.10952   8.242480  78.50377 128.86122  72.93687 128.05481  72.93357 127.10162  78.50046 127.90804
      15  75.71536 127.02787         13.11961   8.242480  78.50046 127.90804  72.93357 127.10162  72.93026 126.14771  78.49716 126.95412
      15  75.71205 126.07359         13.12970   8.242480  78.49716 126.95412  72.93026 126.14771  72.92695 125.19305  78.49385 125.99947
      15  75.70874 125.11857         13.13981   8.242480  78.49385 125.99947  72.92695 125.19305  72.92364 124.23767  78.49053 125.04408
      15  75.70543 124.16281         13.14992   8.242480  78.49053 125.04408  72.92364 124.23767  72.92032 123.28155  78.48722 124.08796
      15  75.70211 123.20633         13.16004   8.242480  78.48722 124.08796  72.92032 123.28155  72.91700 122.32469  78.48390 123.13110
      15  75.69879 122.24910         13.17016   8.242480  78.48390 123.13110  72.91700 122.32469  72.91368 121.36709  78.48058 122.17351
      15  75.69547 121.29114         13.18030   8.242480  78.48058 122.17351  72.91368 121.36709  72.91036 120.40876  78.47725 121.21518
      15  75.69214 120.33244         13.19044   8.242480  78.47725 121.21518  72.91036 120.40876  72.90703 119.44970  78.47393 120.25611
      15  75.68882 119.37300         13.20059   8.242480  78.47393 120.25611  72.90703 119.44970  72.90371 118.48989  78.47060 119.29630
      15  75.68549 118.41282         13.21075   8.242480  78.47060 119.29630  72.90371 118.48989  72.90037 117.52934  78.46727 118.33576
      15  75.68216 117.45191         13.22092   8.242480  78.46727 118.33576  72.90037 117.52934  72.89704 116.56806  78.46394 117.37448
      15  75.67882 116.49026         13.23109   8.242480  78.46394 117.37448  72.89704 116.56806  72.89370 115.60604  78.46060 116.41245
      15  75.67548 115.52786         13.24127   8.242480  78.46060 116.41245  72.89370 115.60604  72.89037 114.64327  78.45726 115.44969
      15  75.67214 114.56473         13.25146   8.242480  78.45726 115.44969  72.89037 114.64327  72.88702 113.67977  78.45392 114.48618
      15  75.66880 113.60085         13.26166   8.242480  78.45392 114.48618  72.88702 113.67977  72.88368 112.71552  78.45058 113.52194
      15  75.66546 112.63623         13.27186   8.242480  78.45058 113.52194  72.88368 112.71552  72.88033 111.75053  78.44723 112.55695
      15  75.66211 111.67087         13.28208   8.242480  78.44723 112.55695  72.88033 111.75053  72.87699 110.78480  78.44388 111.59122
      15  75.65876 110.70477         13.29230   8.242480  78.44388 111.59122  72.87699 110.78480  72.87363 109.81833  78.44053 110.62474
      15  75.65540 109.73793         13.30253   8.242480  78.44053 110.62474  72.87363 109.81833  72.87028 108.85111  78.43718 109.65752
      15  75.65205 108.77034         13.31276   8.242480  78.43718 109.65752  72.87028 108.85111  72.86692 107.88315  78.43382 108.68956
      15  75.64869 107.80200         13.32301   8.242480  78.43382 108.68956  72.86692 107.88315  72.86356 106.91444  78.43046 107.72086
      15  75.64533 106.83292         13.33326   8.242480  78.43046 107.72086  72.86356 106.91444  72.86020 105.94499  78.42710 106.75140
      15  75.64197 105.86310         13.34352   8.242480  78.42710 106.75140  72.86020 105.94499  72.85684 104.97479  78.42373 105.78120
      15  75.63860 104.89252         13.35379   8.242480  78.42373 105.78120  72.85684 104.97479  72.85347 104.00384  78.42037 104.81026
      15  75.63523 103.92121         13.36407   8.242480  78.42037 104.81026  72.85347 104.00384  72.85010 103.03215  78.41700 103.83857
      15  75.63186 102.94914         13.37435   8.242480  78.41700 103.83857  72.85010 103.03215  72.84673 102.05971  78.41362 102.86613
      15  75.62849 101.97633         13.38464   8.242480  78.41362 102.86613  72.84673 102.05971  72.84335 101.08652  78.41025 101.89294
      15  75.62511 101.00276         13.39494   8.242480  78.41025 101.89294  72.84335 101.08652  72.83998 100.11259  78.40687 100.91900
      15  75.62173 100.02845         13.40525   8.242480  78.40687 100.91900  72.83998 100.11259  72.83660  99.13790  78.40349  99.94431
      15  75.61835  99.05339         13.41556   8.242480  78.40349  99.94431  72.83660  99.13790  72.83321  98.16246  78.40011  98.96888
      15  75.61497  98.07758         13.42589   8.242480  78.40011  98.96888  72.83321  98.16246  72.82983  97.18628  78.39672  97.99269
      15  75.61158  97.10101         13.43622   8.242480  78.39672  97.99269  72.82983  97.18628  72.82644  96.20934  78.39334  97.01575
      15  75.60819  96.12370         13.44656   8.242480  78.39334  97.01575  72.82644  96.20934  72.82305  95.23165  78.38995  96.03806
      15  75.60480  95.14563         13.45691   8.242480  78.38995  96.03806  72.82305  95.23165  72.81966  94.25320  78.38655  95.05962
      15  75.60141  94.16681         13.46726   8.242480  78.38655  95.05962  72.81966  94.25320  72.81626  93.27401  78.38316  94.08042
      15  75.59801  93.18724         13.47763   8.242480  78.38316  94.08042  72.81626  93.27401  72.81286  92.29406  78.37976  93.10047
      15  75.59461  92.20691         13.48800   8.242480  78.37976  93.10047  72.81286  92.29406  72.80946  91.31336  78.37636  92.11977
      15  75.59121  91.22583         13.49838   8.242480  78.37636  92.11977  72.80946  91.31336  72.80606  90.33190  78.37295  91.13831
      15  75.58780  90.24400         13.50876   8.242480  78.37295  91.13831  72.80606  90.33190  72.80265  89.34968  78.36955  90.15610
      15  75.58440  89.26141         13.51916   8.242480  78.36955  90.15610  72.80265  89.34968  72.79924  88.36671  78.36614  89.17313
      15  75.58099  88.27806         13.52956   8.242480  78.36614  89.17313  72.79924  88.36671  72.79583  87.38299  78.36273  88.18940
      15  75.57757  87.29396         13.53997   8.242480  78.36273  88.18940  72.79583  87.38299  72.79242  86.39851  78.35931  87.20492
      15  75.57416  86.30909         13.55039   8.242480  78.35931  87.20492  72.79242  86.39851  72.78900  85.41327  78.35590  86.21968
      15  75.57074  85.32348         13.56082   8.242480  78.35590  86.21968  72.78900  85.41327  72.78558  84.42727  78.35248  85.23368
      15  75.56732  84.33710         13.57126   8.242480  78.35248  85.23368  72.78558  84.42727  72.78216  83.44051  78.34906  84.24693
      15  75.56390  83.34996         13.58170   8.242480  78.34906  84.24693  72.78216  83.44051  72.77874  82.45300  78.34563  83.25941
      15  75.56047  82.36206         13.59215   8.242480  78.34563  83.25941  72.77874  82.45300  72.77531  81.46472  78.34221  82.27113
      15  75.55704  81.37341         13.60261   8.242480  78.34221  82.27113  72.77531  81.46472  72.77188  80.47568  78.33878  81.28210
      15  75.55361  80.38399         13.61308   8.242480  78.33878  81.28210  72.77188  80.47568  72.76845  79.48588  78.33534  80.29230
      15  75.55018  79.39381         13.62355   8.242480  78.33534  80.29230  72.76845  79.48588  72.76501  78.49532  78.33191  79.30174
      15  75.54674  78.40287         13.63404   8.242480  78.33191  79.30174  72.76501  78.49532  72.76158  77.50400  78.32847  78.31042
      15  75.54330  77.41117         13.64453   8.242480  78.32847  78.31042  72.76158  77.50400  72.75814  76.51192  78.32503  77.31833
      15  75.53986  76.41870         13.65503   8.242480  78.32503  77.31833  72.75814  76.51192  72.75469  75.51907  78.32159  76.32549
      15  75.53642  75.42547         13.66554   8.242480  78.32159  76.32549  72.75469  75.51907  72.75125  74.52546  78.31814  75.33187
      15  75.53297  74.43148         13.67605   8.242480  78.31814  75.33187  72.75125  74.52546  72.74780  73.53108  78.31469  74.33750
      15  75.52952  73.43672         13.68658   8.242480  78.31469  74.33750  72.74780  73.53108  72.74435  72.53594  78.31124  73.34235
      15  75.52607  72.44119         13.69711   8.242480  78.31124  73.34235  72.74435  72.53594  72.74089  71.54003  78.30779  72.34645
      15  75.52261  71.44490         13.70765   8.242480  78.30779  72.34645  72.74089  71.54003  72.73744  70.54336  78.30433  71.34977
      15  75.51916  70.44784         13.71820   8.242480  78.30433  71.34977  72.73744  70.54336  72.73398  69.54592  78.30087  70.35233
      15  75.51570  69.45002         13.72875   8.242480  78.30087  70.35233  72.73398  69.54592  72.73052  68.54771  78.29741  69.35412
      15  75.51223  68.45143         13.73932   8.242480  78.29741  69.35412  72.73052  68.54771  72.72705  67.54873  78.29395  68.35515
      15  75.50877  67.45207         13.74989   8.242480  78.29395  68.35515  72.72705  67.54873  72.72359  66.54899  78.29048  67.35540
      15  75.50530  66.45194         13.76047   8.242480  78.29048  67.35540  72.72359  66.54899  72.72012  65.54847  78.28701  66.35489
      15  75.50183  65.45104         13.77106   8.242480  78.28701  66.35489  72.72012  65.54847  72.71664  64.54719  78.28354  65.35360
      15  75.49835  64.44937         13.78166   8.242480  78.28354  65.35360  72.71664  64.54719  72.71317  63.54513  78.28006  64.35155
      15  75.49488  63.44693         13.79226   8.242480  78.28006  64.35155  72.71317  63.54513  72.70969  62.54230  78.27659  63.34872
      15  75.49140  62.44371         13.80288   8.242480  78.27659  63.34872  72.70969  62.54230  72.70621  61.53871  78.27311  62.34512
      15  75.48792  61.43973         13.81350   8.242480  78.27311  62.34512  72.70621  61.53871  72.70273  60.53434  78.26962  61.34075
      15  75.48443  60.43497         13.82413   8.242480  78.26962  61.34075  72.70273  60.53434  72.69924  59.52919  78.26614  60.33561
      15  75.48095  59.42944         13.83477   8.242480  78.26614  60.33561  72.69924  59.52919  72.69575  58.52328  78.26265  59.32969
      15  75.47746  58.42314         13.84541   8.242480  78.26265  59.32969  72.69575  58.52328  72.69226  57.51659  78.25916  58.32300
      15  75.47396  57.41606         13.85607   8.242480  78.25916  58.32300  72.69226  57.51659  72.68877  56.50912  78.25566  57.31554
      15  75.47047  56.40821         13.86673   8.242480  78.25566  57.31554  72.68877  56.50912  72.68527  55.50088  78.25217  56.30729
      15  75.46697  55.39958         13.87740   8.242480  78.25217  56.30729  72.68527  55.50088  72.68177  54.49186  78.24867  55.29828
      15  75.46347  54.39017         13.88808   8.242480  78.24867  55.29828  72.68177  54.49186  72.67827  53.48207  78.24517  54.28848
      15  75.45997  53.37999         13.89877   8.242480  78.24517  54.28848  72.67827  53.48207  72.67477  52.47150  78.24166  53.27791
      15  75.45646  52.36903         13.90946   8.242480  78.24166  53.27791  72.67477  52.47150  72.67126  51.46015  78.23816  52.26657
      15  75.45295  51.35730         13.92017   8.242480  78.23816  52.26657  72.67126  51.46015  72.66775  50.44803  78.23465  51.25444
      15  75.44944  50.34478         13.93088   8.242480  78.23465  51.25444  72.66775  50.44803  72.66424  49.43512  78.23113  50.24154
      15  75.44593  49.33149         13.94160   8.242480  78.23113  50.24154  72.66424  49.43512  72.66072  48.42144  78.22762  49.22785
      15  75.44241  48.31741         13.95233   8.242480  78.22762  49.22785  72.66072  48.42144  72.65721  47.40697  78.22410  48.21339
      15  75.43889  47.30256         13.96306   8.242480  78.22410  48.21339  72.65721  47.40697  72.65369  46.39173  78.22058  47.19814
      15  75.43537  46.28692         13.97381   8.242480  78.22058  47.19814  72.65369  46.39173  72.65016  45.37570  78.21706  46.18212
      15  75.43185  45.27050         13.98456   8.242480  78.21706  46.18212  72.65016  45.37570  72.64664  44.35889  78.21353  45.16531
      15  75.42832  44.25330         13.99532   8.242480  78.21353  45.16531  72.64664  44.35889  72.64311  43.34130  78.21000  44.14772
      15  75.42479  43.23532         14.00609   8.242480  78.21000  44.14772  72.64311  43.34130  72.63958  42.32293  78.20647  43.12934
      15  75.42126  42.21656         14.01687   8.242480  78.20647  43.12934  72.63958  42.32293  72.63604  41.30377  78.20294  42.11019
      15  75.41772  41.19701         14.02766   8.242480  78.20294  42.11019  72.63604  41.30377  72.63250  40.28383  78.19940  41.09024
      15  75.41418  40.17667         14.03845   8.242480  78.19940  41.09024  72.63250  40.28383  72.62896  39.26310  78.19586  40.06952
      15  75.41064  39.15555         14.04926   8.242480  78.19586  40.06952  72.62896  39.26310  72.62542  38.24159  78.19232  39.04801
      15  75.40710  38.13365         14.06007   8.242480  78.19232  39.04801  72.62542  38.24159  72.62188  37.21929  78.18877  38.02571
      15  75.40355  37.11096         14.07089   8.242480  78.18877  38.02571  72.62188  37.21929  72.61833  36.19621  78.18522  37.00262
      15  75.40000  36.08748         14.08171   8.242480  78.18522  37.00262  72.61833  36.19621  72.61478  35.17233  78.18167  35.97875
      15  75.39645  35.06321         14.09255   8.242480  78.18167  35.97875  72.61478  35.17233  72.61123  34.14767  78.17812  34.95409
      15  75.39289  34.03816         14.10339   8.242480  78.17812  34.95409  72.61123  34.14767  72.60767  33.12223  78.17456  33.92864
      15  75.38934  33.01232         14.11425   8.242480  78.17456  33.92864  72.60767  33.12223  72.60411  32.09599  78.17101  32.90240
      15  75.38578  31.98568         14.12511   8.242480  78.17101  32.90240  72.60411  32.09599  72.60055  31.06896  78.16744  31.87538
      15  75.38221  30.95826         14.13598   8.242480  78.16744  31.87538  72.60055  31.06896  72.59698  30.04114  78.16388  30.84756
      15  75.37865  29.93005         14.14686   8.242480  78.16388  30.84756  72.59698  30.04114  72.59342  29.01254  78.16031  29.81895
      15  75.37508  28.90104         14.15774   8.242480  78.16031  29.81895  72.59342  29.01254  72.58985  27.98314  78.15674  28.78955
      15  75.37151  27.87125         14.16864   8.242480  78.15674  28.78955  72.58985  27.98314  72.58628  26.95294  78.15317  27.75936
      15  75.36794  26.84066         14.17954   8.242480  78.15317  27.75936  72.58628  26.95294  72.58270  25.92196  78.14960  26.72837
      15  75.36436  25.80928         14.19045   8.242480  78.14960  26.72837  72.58270  25.92196  72.57912  24.89018  78.14602  25.69659
      15  75.36078  24.77710         14.20137   8.242480  78.14602  25.69659  72.57912  24.89018  72.57554  23.85761  78.14244  24.66402
      15  75.35720  23.74413         14.21230   8.242480  78.14244  24.66402  72.57554  23.85761  72.57196  22.82424  78.13885  23.63066
      15  75.35361  22.71037         14.22324   8.242480  78.13885  23.63066  72.57196  22.82424  72.56837  21.79008  78.13527  22.59649
      15  75.35002  21.67581         14.23418   8.242480  78.13527  22.59649  72.56837  21.79008  72.56478  20.75512  78.13168  21.56154
      15  75.34643  20.64045         14.24514   8.242480  78.13168  21.56154  72.56478  20.75512  72.56119  19.71937  78.12809  20.52578
      15  75.34284  19.60430         14.25610   8.242480  78.12809  20.52578  72.56119  19.71937  72.55760  18.68281  78.12449  19.48923
      15  75.33925  18.56735         14.26707   8.242480  78.12449  19.48923  72.55760  18.68281  72.55400  17.64546  78.12089  18.45188
      15  75.33565  17.52960         14.27805   8.242480  78.12089  18.45188  72.55400  17.64546  72.55040  16.60732  78.11729  17.41373
      15  75.33205  16.49105         14.28904   8.242480  78.11729  17.41373  72.55040  16.60732  72.54680  15.56837  78.11369  16.37479
      15  75.32844  15.45171         14.30003   8.242480  78.11369  16.37479  72.54680  15.56837  72.54319  14.52863  78.11009  15.33504
      15  75.32483  14.41156         14.31104   8.242480  78.11009  15.33504  72.54319  14.52863  72.53958  13.48808  78.10648  14.29449
      15  75.32122  13.37061         14.32205   8.242480  78.10648  14.29449  72.53958  13.48808  72.53597  12.44673  78.10287  13.25315
      15  75.31761  12.32887         14.33307   8.242480  78.10287  13.25315  72.53597  12.44673  72.53236  11.40458  78.09925  12.21100
      15  75.31400  11.28632         14.34410   8.242480  78.09925  12.21100  72.53236  11.40458  72.52874  10.36164  78.09564  11.16805
      15  75.31038  10.24297         14.35514   8.242480  78.09564  11.16805  72.52874  10.36164  72.52512   9.31788  78.09202  10.12430
      15  75.30676   9.19881         14.36618   8.242480  78.09202  10.12430  72.52512   9.31788  72.52150   8.27333  78.08839   9.07974
      15  75.30313   8.15385         14.37724   8.242480  78.08839   9.07974  72.52150   8.27333  72.51787   7.22797  78.08477   8.03438
      15  75.29951   7.10809         14.38830   8.242480  78.08477   8.03438  72.51787   7.22797  72.51425   6.18180  78.08114   6.98822
      15  75.29588   6.06153         14.39937   8.242480  78.08114   6.98822  72.51425   6.18180  72.51062   5.13483  78.07751   5.94125
      15  75.29225   5.01415         14.41046   8.242480  78.07751   5.94125  72.51062   5.13483  72.50698   4.08706  78.07388   4.89348
      15  75.28861   3.96598         14.42154   8.242480  78.07388   4.89348  72.50698   4.08706  72.50335   3.03848  78.07024   3.84489
      15  75.28497   2.91699         14.43264   8.242480  78.07024   3.84489  72.50335   3.03848  72.49971   1.98909  78.06660   2.79551
      15  75.28133   1.86720         14.44375   8.242480  78.06660   2.79551  72.49971   1.98909  72.49606   0.93890  78.06296   1.74531
      15  75.27769   0.81660         14.45486   8.242480  78.06296   1.74531  72.49606   0.93890  72.49242  -0.11211  78.05932   0.69431
      14  63.66142 127.65359         14.02766   8.840170  66.45085 128.56075  60.89267 127.69631  60.87200 126.74644  66.43017 127.61088
      14  63.64074 126.70336         14.03845   8.840170  66.43017 127.61088  60.87200 126.74644  60.85131 125.79583  66.40949 126.66028
      14  63.62004 125.75239         14.04926   8.840170  66.40949 126.66028  60.85131 125.79583  60.83060 124.84450  66.38878 125.70894
      14  63.59933 124.80069         14.06007   8.840170  66.38878 125.70894  60.83060 124.84450  60.80988 123.89243  66.36806 124.75688
      14  63.57860 123.84826         14.07089   8.840170  66.36806 124.75688  60.80988 123.89243  60.78914 122.93964  66.34732 123.80408
      14  63.55786 122.89509         14.08171   8.840170  66.34732 123.80408  60.78914 122.93964  60.76839 121.98610  66.32657 122.85055
      14  63.53710 121.94119         14.09255   8.840170  66.32657 122.85055  60.76839 121.98610  60.74762 121.03184  66.30580 121.89628
      14  63.51632 120.98656         14.10339   8.840170  66.30580 121.89628  60.74762 121.03184  60.72684 120.07684  66.28502 120.94128
      14  63.49553 120.03119         14.11425   8.840170  66.28502 120.94128  60.72684 120.07684  60.70604 119.12110  66.26422 119.98555
      14  63.47472 119.07509         14.12511   8.840170  66.26422 119.98555  60.70604 119.12110  60.68522 118.16463  66.24340 119.02908
      14  63.45390 118.11825         14.13598   8.840170  66.24340 119.02908  60.68522 118.16463  60.66439 117.20743  66.22257 118.07187
      14  63.43306 117.16068         14.14686   8.840170  66.22257 118.07187  60.66439 117.20743  60.64354 116.24948  66.20172 117.11393
      14  63.41220 116.20236         14.15774   8.840170  66.20172 117.11393  60.64354 116.24948  60.62268 115.29080  66.18086 116.15525
      14  63.39133 115.24332         14.16864   8.840170  66.18086 116.15525  60.62268 115.29080  60.60180 114.33139  66.15998 115.19583
      14  63.37044 114.28353         14.17954   8.840170  66.15998 115.19583  60.60180 114.33139  60.58090 113.37123  66.13908 114.23567
      14  63.34953 113.32300         14.19045   8.840170  66.13908 114.23567  60.58090 113.37123  60.55999 112.41033  66.11817 113.27478
      14  63.32861 112.36174         14.20137   8.840170  66.11817 113.27478  60.55999 112.41033  60.53906 111.44870  66.09724 112.31314
      14  63.30768 111.39973         14.21230   8.840170  66.09724 112.31314  60.53906 111.44870  60.51811 110.48633  66.07629 111.35077
      14  63.28672 110.43699         14.22324   8.840170  66.07629 111.35077  60.51811 110.48633  60.49715 109.52321  66.05533 110.38765
      14  63.26575 109.47350         14.23418   8.840170  66.05533 110.38765  60.49715 109.52321  60.47617 108.55935  66.03435 109.42380
      14  63.24477 108.50928         14.24514   8.840170  66.03435 109.42380  60.47617 108.55935  60.45518 107.59476  66.01336 108.45920
      14  63.22377 107.54431         14.25610   8.840170  66.01336 108.45920  60.45518 107.59476  60.43417 106.62942  65.99235 107.49386
      14  63.20275 106.57860         14.26707   8.840170  65.99235 107.49386  60.43417 106.62942  60.41315 105.66333  65.97133 106.52778
      14  63.18172 105.61214         14.27805   8.840170  65.97133 106.52778  60.41315 105.66333  60.39210 104.69651  65.95028 105.56095
      14  63.16067 104.64494         14.28904   8.840170  65.95028 105.56095  60.39210 104.69651  60.37105 103.72894  65.92923 104.59338
      14  63.13960 103.67700         14.30003   8.840170  65.92923 104.59338  60.37105 103.72894  60.34997 102.76062  65.90815 103.62506
      14  63.11852 102.70831         14.31104   8.840170  65.90815 103.62506  60.34997 102.76062  60.32888 101.79156  65.88706 102.65600
      14  63.09742 101.73888         14.32205   8.840170  65.88706 102.65600  60.32888 101.79156  60.30777 100.82176  65.86595 101.68620
      14  63.07630 100.76870         14.33307   8.840170  65.86595 101.68620  60.30777 100.82176  60.28665  99.85120  65.84483 100.71565
      14  63.05517  99.79778         14.34410   8.840170  65.84483 100.71565  60.28665  99.85120  60.26551  98.87990  65.82369  99.74435
      14  63.03403  98.82610         14.35514   8.840170  65.82369  99.74435  60.26551  98.87990  60.24436  97.90786  65.80254  98.77230
      14  63.01286  97.85368         14.36618   8.840170  65.80254  98.77230  60.24436  97.90786  60.22319  96.93506  65.78137  97.79951
      14  62.99168  96.88051         14.37724   8.840170  65.78137  97.79951  60.22319  96.93506  60.20200  95.96152  65.76018  96.82596
      14  62.97049  95.90660         14.38830   8.840170  65.76018  96.82596  60.20200  95.96152  60.18079  94.98723  65.73897  95.85167
      14  62.94927  94.93193         14.39937   8.840170  65.73897  95.85167  60.18079  94.98723  60.15957  94.01219  65.71775  94.87663
      14  62.92804  93.95651         14.41046   8.840170  65.71775  94.87663  60.15957  94.01219  60.13834  93.03639  65.69652  93.90084
      14  62.90680  92.98034         14.42154   8.840170  65.69652  93.90084  60.13834  93.03639  60.11708  92.05985  65.67526  92.92429
      14  62.88554  92.00342         14.43264   8.840170  65.67526  92.92429  60.11708  92.05985  60.09581  91.08256  65.65399  91.94700
      14  62.86426  91.02575         14.44375   8.840170  65.65399  91.94700  60.09581  91.08256  60.07453  90.10451  65.63271  90.96895
      14  62.84297  90.04733         14.45486   8.840170  65.63271  90.96895  60.07453  90.10451  60.05322  89.12571  65.61140  89.99015
      14  62.82165  89.06815         14.46599   8.840170  65.61140  89.99015  60.05322  89.12571  60.03191  88.14616  65.59009  89.01060
      14  62.80033  88.08823         14.47712   8.840170  65.59009  89.01060  60.03191  88.14616  60.01057  87.16585  65.56875  88.03029
      14  62.77898  87.10754         14.48826   8.840170  65.56875  88.03029  60.01057  87.16585  59.98922  86.18479  65.54740  87.04923
      14  62.75762  86.12610         14.49941   8.840170  65.54740  87.04923  59.98922  86.18479  59.96785  85.20297  65.52603  86.06742
      14  62.73625  85.14391         14.51057   8.840170  65.52603  86.06742  59.96785  85.20297  59.94647  84.22040  65.50465  85.08485
      14  62.71486  84.16096         14.52173   8.840170  65.50465  85.08485  59.94647  84.22040  59.92507  83.23708  65.48325  84.10152
      14  62.69345  83.17726         14.53291   8.840170  65.48325  84.10152  59.92507  83.23708  59.90365  82.25299  65.46183  83.11743
      14  62.67202  82.19279         14.54409   8.840170  65.46183  83.11743  59.90365  82.25299  59.88221  81.26815  65.44039  82.13259
      14  62.65058  81.20757         14.55528   8.840170  65.44039  82.13259  59.88221  81.26815  59.86076  80.28255  65.41894  81.14699
      14  62.62912  80.22159         14.56648   8.840170  65.41894  81.14699  59.86076  80.28255  59.83930  79.29619  65.39748  80.16064
      14  62.60764  79.23486         14.57769   8.840170  65.39748  80.16064  59.83930  79.29619  59.81781  78.30908  65.37599  79.17352
      14  62.58615  78.24736         14.58891   8.840170  65.37599  79.17352  59.81781  78.30908  59.79631  77.32120  65.35449  78.18564
      14  62.56464  77.25910         14.60014   8.840170  65.35449  78.18564  59.79631  77.32120  59.77480  76.33256  65.33298  77.19701
      14  62.54312  76.27009         14.61137   8.840170  65.33298  77.19701  59.77480  76.33256  59.75326  75.34317  65.31144  76.20761
      14  62.52158  75.28031         14.62262   8.840170  65.31144  76.20761  59.75326  75.34317  59.73171  74.35301  65.28989  75.21745
      14  62.50002  74.28977         14.63387   8.840170  65.28989  75.21745  59.73171  74.35301  59.71015  73.36209  65.26833  74.22653
      14  62.47845  73.29847         14.64513   8.840170  65.26833  74.22653  59.71015  73.36209  59.68856  72.37040  65.24674  73.23485
      14  62.45686  72.30640         14.65640   8.840170  65.24674  73.23485  59.68856  72.37040  59.66697  71.37796  65.22515  72.24240
      14  62.43525  71.31357         14.66768   8.840170  65.22515  72.24240  59.66697  71.37796  59.64535  70.38475  65.20353  71.24919
      14  62.41362  70.31998         14.67897   8.840170  65.20353  71.24919  59.64535  70.38475  59.62372  69.39077  65.18190  70.25522
      14  62.39198  69.32563         14.69026   8.840170  65.18190  70.25522  59.62372  69.39077  59.60207  68.39604  65.16025  69.26048
      14  62.37032  68.33050         14.70157   8.840170  65.16025  69.26048  59.60207  68.39604  59.58040  67.40053  65.13858  68.26497
      14  62.34865  67.33462         14.71288   8.840170  65.13858  68.26497  59.58040  67.40053  59.55872  66.40426  65.11690  67.26870
      14  62.32696  66.33796         14.72420   8.840170  65.11690  67.26870  59.55872  66.40426  59.53702  65.40722  65.09520  66.27167
      14  62.30525  65.34054         14.73553   8.840170  65.09520  66.27167  59.53702  65.40722  59.51530  64.40942  65.07348  65.27386
      14  62.28353  64.34235         14.74687   8.840170  65.07348  65.27386  59.51530  64.40942  59.49357  63.41085  65.05175  64.27529
      14  62.26179  63.34340         14.75822   8.840170  65.05175  64.27529  59.49357  63.41085  59.47182  62.41150  65.03000  63.27595
      14  62.24003  62.34367         14.76958   8.840170  65.03000  63.27595  59.47182  62.41150  59.45006  61.41140  65.00824  62.27584
      14  62.21825  61.34318         14.78094   8.840170  65.00824  62.27584  59.45006  61.41140  59.42827  60.41052  64.98645  61.27496
      14  62.19646  60.34191         14.79232   8.840170  64.98645  61.27496  59.42827  60.41052  59.40647  59.40887  64.96465  60.27331
      14  62.17465  59.33988         14.80370   8.840170  64.96465  60.27331  59.40647  59.40887  59.38466  58.40645  64.94284  59.27089
      14  62.15283  58.33707         14.81509   8.840170  64.94284  59.27089  59.38466  58.40645  59.36282  57.40325  64.92100  58.26770
      14  62.13099  57.33349         14.82649   8.840170  64.92100  58.26770  59.36282  57.40325  59.34097  56.39929  64.89915  57.26373
      14  62.10913  56.32914         14.83790   8.840170  64.89915  57.26373  59.34097  56.39929  59.31911  55.39455  64.87729  56.25900
      14  62.08725  55.32402         14.84932   8.840170  64.87729  56.25900  59.31911  55.39455  59.29722  54.38904  64.85540  55.25349
      14  62.06536  54.31812         14.86075   8.840170  64.85540  55.25349  59.29722  54.38904  59.27532  53.38276  64.83350  54.24720
      14  62.04345  53.31145         14.87218   8.840170  64.83350  54.24720  59.27532  53.38276  59.25340  52.37570  64.81158  53.24014
      14  62.02153  52.30401         14.88363   8.840170  64.81158  53.24014  59.25340  52.37570  59.23147  51.36787  64.78965  52.23231
      14  61.99958  51.29579         14.89508   8.840170  64.78965  52.23231  59.23147  51.36787  59.20952  50.35926  64.76770  51.22370
      14  61.97762  50.28679         14.90654   8.840170  64.76770  51.22370  59.20952  50.35926  59.18755  49.34988  64.74573  50.21432
      14  61.95565  49.27702         14.91801   8.840170  64.74573  50.21432  59.18755  49.34988  59.16557  48.33972  64.72375  49.20416
      14  61.93365  48.26647         14.92949   8.840170  64.72375  49.20416  59.16557  48.33972  59.14356  47.32878  64.70174  48.19322
      14  61.91164  47.25514         14.94098   8.840170  64.70174  48.19322  59.14356  47.32878  59.12154  46.31706  64.67972  47.18150
      14  61.88962  46.24303         14.95248   8.840170  64.67972  47.18150  59.12154  46.31706  59.09951  45.30457  64.65769  46.16901
      14  61.86757  45.23015         14.96399   8.840170  64.65769  46.16901  59.09951  45.30457  59.07746  44.29129  64.63564  45.15573
      14  61.84551  44.21649         14.97550   8.840170  64.63564  45.15573  59.07746  44.29129  59.05539  43.27724  64.61357  44.14168
      14  61.82343  43.20204         14.98702   8.840170  64.61357  44.14168  59.05539  43.27724  59.03330  42.26240  64.59148  43.12685
      14  61.80134  42.18682         14.99856   8.840170  64.59148  43.12685  59.03330  42.26240  59.01120  41.24679  64.56938  42.11123
      14  61.77923  41.17081         15.01010   8.840170  64.56938  42.11123  59.01120  41.24679  58.98908  40.23039  64.54726  41.09483
      14  61.75710  40.15402         15.02165   8.840170  64.54726  41.09483  58.98908  40.23039  58.96694  39.21321  64.52512  40.07766
      14  61.73495  39.13645         15.03321   8.840170  64.52512  40.07766  58.96694  39.21321  58.94478  38.19525  64.50296  39.05969
      14  61.71279  38.11810         15.04478   8.840170  64.50296  39.05969  58.94478  38.19525  58.92261  37.17651  64.48079  38.04095
      14  61.69061  37.09896         15.05636   8.840170  64.48079  38.04095  58.92261  37.17651  58.90042  36.15698  64.45860  37.02142
      14  61.66841  36.07904         15.06794   8.840170  64.45860  37.02142  58.90042  36.15698  58.87822  35.13666  64.43640  36.00111
      14  61.64620  35.05834         15.07954   8.840170  64.43640  36.00111  58.87822  35.13666  58.85599  34.11557  64.41417  34.98001
      14  61.62396  34.03685         15.09114   8.840170  64.41417  34.98001  58.85599  34.11557  58.83375  33.09368  64.39193  33.95812
      14  61.60171  33.01457         15.10275   8.840170  64.39193  33.95812  58.83375  33.09368  58.81150  32.07101  64.36968  32.93545
      14  61.57945  31.99150         15.11438   8.840170  64.36968  32.93545  58.81150  32.07101  58.78922  31.04755  64.34740  31.91200
      14  61.55717  30.96765         15.12601   8.840170  64.34740  31.91200  58.78922  31.04755  58.76693  30.02331  64.32511  30.88775
      14  61.53487  29.94301         15.13765   8.840170  64.32511  30.88775  58.76693  30.02331  58.74462  28.99827  64.30280  29.86272
      14  61.51255  28.91758         15.14930   8.840170  64.30280  29.86272  58.74462  28.99827  58.72230  27.97245  64.28048  28.83689
      14  61.49021  27.89137         15.16095   8.840170  64.28048  28.83689  58.72230  27.97245  58.69995  26.94584  64.25813  27.81028
      14  61.46786  26.86436         15.17262   8.840170  64.25813  27.81028  58.69995  26.94584  58.67759  25.91844  64.23577  26.78288
      14  61.44549  25.83656         15.18430   8.840170  64.23577  26.78288  58.67759  25.91844  58.65522  24.89025  64.21340  25.75469
      14  61.42311  24.80798         15.19598   8.840170  64.21340  25.75469  58.65522  24.89025  58.63282  23.86126  64.19100  24.72571
      14  61.40070  23.77860         15.20767   8.840170  64.19100  24.72571  58.63282  23.86126  58.61041  22.83149  64.16859  23.69593
      14  61.37828  22.74843         15.21938   8.840170  64.16859  23.69593  58.61041  22.83149  58.58798  21.80092  64.14616  22.66536
      14  61.35585  21.71746         15.23109   8.840170  64.14616  22.66536  58.58798  21.80092  58.56553  20.76956  64.12371  21.63400
      14  61.33339  20.68570         15.24281   8.840170  64.12371  21.63400  58.56553  20.76956  58.54307  19.73740  64.10125  20.60185
      14  61.31092  19.65315         15.25454   8.840170  64.10125  20.60185  58.54307  19.73740  58.52059  18.70446  64.07877  19.56890
      14  61.28843  18.61981         15.26628   8.840170  64.07877  19.56890  58.52059  18.70446  58.49809  17.67071  64.05627  18.53515
      14  61.26592  17.58566         15.27803   8.840170  64.05627  18.53515  58.49809  17.67071  58.47558  16.63617  64.03376  17.50062
      14  61.24340  16.55073         15.28978   8.840170  64.03376  17.50062  58.47558  16.63617  58.45304  15.60084  64.01122  16.46528
      14  61.22086  15.51499         15.30155   8.840170  64.01122  16.46528  58.45304  15.60084  58.43049  14.56471  63.98867  15.42915
      14  61.19830  14.47846         15.31332   8.840170  63.98867  15.42915  58.43049  14.56471  58.40792  13.52778  63.96610  14.39222
      14  61.17572  13.44113         15.32511   8.840170  63.96610  14.39222  58.40792  13.52778  58.38534  12.49005  63.94352  13.35449
      14  61.15313  12.40301         15.33690   8.840170  63.94352  13.35449  58.38534  12.49005  58.36274  11.45152  63.92092  12.31597
      14  61.13052  11.36408         15.34870   8.840170  63.92092  12.31597  58.36274  11.45152  58.34012  10.41220  63.89830  11.27664
      14  61.10789  10.32436         15.36051   8.840170  63.89830  11.27664  58.34012  10.41220  58.31748   9.37207  63.87566  10.23652
      14  61.08524   9.28383         15.37233   8.840170  63.87566  10.23652  58.31748   9.37207  58.29483   8.33115  63.85301   9.19559
      14  61.06258   8.24251         15.38416   8.840170  63.85301   9.19559  58.29483   8.33115  58.27215   7.28942  63.83033   8.15387
      14  61.03990   7.20038         15.39600   8.840170  63.83033   8.15387  58.27215   7.28942  58.24946   6.24690  63.80764   7.11134
      14  61.01720   6.15745         15.40785   8.840170  63.80764   7.11134  58.24946   6.24690  58.22676   5.20357  63.78494   6.06801
      14  60.99449   5.11372         15.41971   8.840170  63.78494   6.06801  58.22676   5.20357  58.20403   4.15943  63.76221   5.02387
      14  60.97175   4.06919         15.43157   8.840170  63.76221   5.02387  58.20403   4.15943  58.18129   3.11450  63.73947   3.97894
      14  60.94900   3.02385         15.44345   8.840170  63.73947   3.97894  58.18129   3.11450  58.15853   2.06876  63.71671   2.93320
      14  60.92623   1.97770         15.45533   8.840170  63.71671   2.93320  58.15853   2.06876  58.13576   1.02221  63.69394   1.88665
      14  60.90345   0.93076         15.46722   8.840170  63.69394   1.88665  58.13576   1.02221  58.11296  -0.02514  63.67114   0.83930
      13  48.80053 127.69861         15.07954   9.519680  51.58617 128.63591  46.03863 127.70561  46.01489 126.76131  51.56243 127.69160
      13  48.77677 126.75394         15.09114   9.519680  51.56243 127.69160  46.01489 126.76131  45.99112 125.81628  51.53866 126.74658
      13  48.75300 125.80855         15.10275   9.519680  51.53866 126.74658  45.99112 125.81628  45.96734 124.87052  51.51488 125.80082
      13  48.72921 124.86243         15.11438   9.519680  51.51488 125.80082  45.96734 124.87052  45.94354 123.92404  51.49108 124.85434
      13  48.70540 123.91558         15.12601   9.519680  51.49108 124.85434  45.94354 123.92404  45.91972 122.97683  51.46726 123.90713
      13  48.68157 122.96801         15.13765   9.519680  51.46726 123.90713  45.91972 122.97683  45.89588 122.02889  51.44342 122.95919
      13  48.65772 122.01970         15.14930   9.519680  51.44342 122.95919  45.89588 122.02889  45.87203 121.08022  51.41956 122.01052
      13  48.63386 121.07067         15.16095   9.519680  51.41956 122.01052  45.87203 121.08022  45.84815 120.13082  51.39569 121.06112
      13  48.60997 120.12090         15.17262   9.519680  51.39569 121.06112  45.84815 120.13082  45.82426 119.18069  51.37180 120.11099
      13  48.58607 119.17041         15.18430   9.519680  51.37180 120.11099  45.82426 119.18069  45.80035 118.22983  51.34788 119.16013
      13  48.56215 118.21918         15.19598   9.519680  51.34788 119.16013  45.80035 118.22983  45.77642 117.27824  51.32395 118.20853
      13  48.53821 117.26722         15.20767   9.519680  51.32395 118.20853  45.77642 117.27824  45.75247 116.32591  51.30001 117.25621
      13  48.51425 116.31453         15.21938   9.519680  51.30001 117.25621  45.75247 116.32591  45.72850 115.37285  51.27604 116.30315
      13  48.49028 115.36111         15.23109   9.519680  51.27604 116.30315  45.72850 115.37285  45.70452 114.41906  51.25206 115.34936
      13  48.46628 114.40695         15.24281   9.519680  51.25206 115.34936  45.70452 114.41906  45.68051 113.46454  51.22805 114.39483
      13  48.44227 113.45206         15.25454   9.519680  51.22805 114.39483  45.68051 113.46454  45.65649 112.50928  51.20403 113.43957
      13  48.41824 112.49643         15.26628   9.519680  51.20403 113.43957  45.65649 112.50928  45.63245 111.55328  51.17999 112.48358
      13  48.39419 111.54007         15.27803   9.519680  51.17999 112.48358  45.63245 111.55328  45.60839 110.59655  51.15593 111.52685
      13  48.37012 110.58297         15.28978   9.519680  51.15593 111.52685  45.60839 110.59655  45.58432 109.63908  51.13185 110.56938
      13  48.34604 109.62513         15.30155   9.519680  51.13185 110.56938  45.58432 109.63908  45.56022 108.68088  51.10776 109.61118
      13  48.32193 108.66656         15.31332   9.519680  51.10776 109.61118  45.56022 108.68088  45.53611 107.72194  51.08364 108.65224
      13  48.29781 107.70725         15.32511   9.519680  51.08364 108.65224  45.53611 107.72194  45.51197 106.76226  51.05951 107.69256
      13  48.27366 106.74720         15.33690   9.519680  51.05951 107.69256  45.51197 106.76226  45.48782 105.80184  51.03536 106.73214
      13  48.24950 105.78641         15.34870   9.519680  51.03536 106.73214  45.48782 105.80184  45.46365 104.84069  51.01119 105.77098
      13  48.22532 104.82489         15.36051   9.519680  51.01119 105.77098  45.46365 104.84069  45.43946 103.87879  50.98700 104.80909
      13  48.20113 103.86262         15.37233   9.519680  50.98700 104.80909  45.43946 103.87879  45.41525 102.91615  50.96279 103.84645
      13  48.17691 102.89961         15.38416   9.519680  50.96279 103.84645  45.41525 102.91615  45.39103 101.95278  50.93857 102.88307
      13  48.15267 101.93587         15.39600   9.519680  50.93857 102.88307  45.39103 101.95278  45.36678 100.98866  50.91432 101.91896
      13  48.12842 100.97138         15.40785   9.519680  50.91432 101.91896  45.36678 100.98866  45.34252 100.02380  50.89006 100.95410
      13  48.10415 100.00614         15.41971   9.519680  50.89006 100.95410  45.34252 100.02380  45.31824  99.05819  50.86577  99.98849
      13  48.07986  99.04017         15.43157   9.519680  50.86577  99.98849  45.31824  99.05819  45.29394  98.09185  50.84147  99.02215
      13  48.05555  98.07345         15.44345   9.519680  50.84147  99.02215  45.29394  98.09185  45.26962  97.12476  50.81715  98.05506
      13  48.03122  97.10599         15.45533   9.519680  50.81715  98.05506  45.26962  97.12476  45.24528  96.15692  50.79282  97.08722
      13  48.00687  96.13778         15.46722   9.519680  50.79282  97.08722  45.24528  96.15692  45.22092  95.18835  50.76846  96.11864
      13  47.98250  95.16883         15.47913   9.519680  50.76846  96.11864  45.22092  95.18835  45.19655  94.21902  50.74408  95.14932
      13  47.95812  94.19914         15.49104   9.519680  50.74408  95.14932  45.19655  94.21902  45.17215  93.24895  50.71969  94.17925
      13  47.93371  93.22869         15.50296   9.519680  50.71969  94.17925  45.17215  93.24895  45.14774  92.27814  50.69528  93.20843
      13  47.90929  92.25750         15.51489   9.519680  50.69528  93.20843  45.14774  92.27814  45.12331  91.30657  50.67084  92.23687
      13  47.88485  91.28557         15.52683   9.519680  50.67084  92.23687  45.12331  91.30657  45.09886  90.33426  50.64639  91.26456
      13  47.86039  90.31288         15.53878   9.519680  50.64639  91.26456  45.09886  90.33426  45.07439  89.36120  50.62192  90.29150
      13  47.83591  89.33945         15.55073   9.519680  50.62192  90.29150  45.07439  89.36120  45.04990  88.38739  50.59744  89.31769
      13  47.81141  88.36526         15.56270   9.519680  50.59744  89.31769  45.04990  88.38739  45.02539  87.41284  50.57293  88.34313
      13  47.78690  87.39033         15.57468   9.519680  50.57293  88.34313  45.02539  87.41284  45.00087  86.43753  50.54840  87.36783
      13  47.76236  86.41465         15.58666   9.519680  50.54840  87.36783  45.00087  86.43753  44.97632  85.46147  50.52386  86.39177
      13  47.73781  85.43822         15.59866   9.519680  50.52386  86.39177  44.97632  85.46147  44.95176  84.48466  50.49929  85.41496
      13  47.71323  84.46103         15.61066   9.519680  50.49929  85.41496  44.95176  84.48466  44.92717  83.50710  50.47471  84.43740
      13  47.68864  83.48309         15.62267   9.519680  50.47471  84.43740  44.92717  83.50710  44.90257  82.52879  50.45011  83.45909
      13  47.66403  82.50440         15.63469   9.519680  50.45011  83.45909  44.90257  82.52879  44.87795  81.54972  50.42549  82.48002
      13  47.63940  81.52496         15.64673   9.519680  50.42549  82.48002  44.87795  81.54972  44.85331  80.56990  50.40085  81.50020
      13  47.61475  80.54477         15.65877   9.519680  50.40085  81.50020  44.85331  80.56990  44.82865  79.58933  50.37619  80.51963
      13  47.59008  79.56381         15.67082   9.519680  50.37619  80.51963  44.82865  79.58933  44.80398  78.60800  50.35151  79.53830
      13  47.56540  78.58211         15.68288   9.519680  50.35151  79.53830  44.80398  78.60800  44.77928  77.62592  50.32682  78.55622
      13  47.54069  77.59965         15.69494   9.519680  50.32682  78.55622  44.77928  77.62592  44.75456  76.64308  50.30210  77.57338
      13  47.51597  76.61643         15.70702   9.519680  50.30210  77.57338  44.75456  76.64308  44.72983  75.65948  50.27737  76.58978
      13  47.49122  75.63246         15.71911   9.519680  50.27737  76.58978  44.72983  75.65948  44.70508  74.67513  50.25261  75.60543
      13  47.46646  74.64773         15.73121   9.519680  50.25261  75.60543  44.70508  74.67513  44.68030  73.69002  50.22784  74.62032
      13  47.44168  73.66224         15.74331   9.519680  50.22784  74.62032  44.68030  73.69002  44.65551  72.70416  50.20305  73.63445
      13  47.41688  72.67599         15.75543   9.519680  50.20305  73.63445  44.65551  72.70416  44.63070  71.71753  50.17824  72.64783
      13  47.39206  71.68899         15.76755   9.519680  50.17824  72.64783  44.63070  71.71753  44.60587  70.73014  50.15341  71.66044
      13  47.36722  70.70122         15.77968   9.519680  50.15341  71.66044  44.60587  70.73014  44.58102  69.74200  50.12856  70.67230
      13  47.34236  69.71270         15.79183   9.519680  50.12856  70.67230  44.58102  69.74200  44.55615  68.75309  50.10369  69.68339
      13  47.31748  68.72341         15.80398   9.519680  50.10369  69.68339  44.55615  68.75309  44.53127  67.76343  50.07880  68.69373
      13  47.29258  67.73336         15.81614   9.519680  50.07880  68.69373  44.53127  67.76343  44.50636  66.77300  50.05390  67.70330
      13  47.26767  66.74255         15.82831   9.519680  50.05390  67.70330  44.50636  66.77300  44.48144  65.78181  50.02897  66.71211
      13  47.24273  65.75098         15.84049   9.519680  50.02897  66.71211  44.48144  65.78181  44.45649  64.78986  50.00403  65.72015
      13  47.21778  64.75865         15.85268   9.519680  50.00403  65.72015  44.45649  64.78986  44.43153  63.79714  49.97906  64.72744
      13  47.19280  63.76555         15.86488   9.519680  49.97906  64.72744  44.43153  63.79714  44.40654  62.80366  49.95408  63.73396
      13  47.16781  62.77169         15.87709   9.519680  49.95408  63.73396  44.40654  62.80366  44.38154  61.80941  49.92908  62.73971
      13  47.14280  61.77706         15.88931   9.519680  49.92908  62.73971  44.38154  61.80941  44.35652  60.81440  49.90406  61.74470
      13  47.11777  60.78166         15.90153   9.519680  49.90406  61.74470  44.35652  60.81440  44.33148  59.81863  49.87902  60.74893
      13  47.09272  59.78551         15.91377   9.519680  49.87902  60.74893  44.33148  59.81863  44.30642  58.82209  49.85396  59.75238
      13  47.06765  58.78858         15.92602   9.519680  49.85396  59.75238  44.30642  58.82209  44.28134  57.82478  49.82888  58.75508
      13  47.04256  57.79089         15.93827   9.519680  49.82888  58.75508  44.28134  57.82478  44.25624  56.82670  49.80378  57.75700
      13  47.01745  56.79243         15.95054   9.519680  49.80378  57.75700  44.25624  56.82670  44.23112  55.82786  49.77866  56.75816
      13  46.99232  55.79320         15.96281   9.519680  49.77866  56.75816  44.23112  55.82786  44.20599  54.82824  49.75352  55.75854
      13  46.96718  54.79320         15.97509   9.519680  49.75352  55.75854  44.20599  54.82824  44.18083  53.82786  49.72837  54.75816
      13  46.94201  53.79243         15.98739   9.519680  49.72837  54.75816  44.18083  53.82786  44.15565  52.82671  49.70319  53.75701
      13  46.91682  52.79090         15.99969   9.519680  49.70319  53.75701  44.15565  52.82671  44.13046  51.82479  49.67800  52.75509
      13  46.89162  51.78859         16.01200   9.519680  49.67800  52.75509  44.13046  51.82479  44.10524  50.82209  49.65278  51.75239
      13  46.86639  50.78551         16.02432   9.519680  49.65278  51.75239  44.10524  50.82209  44.08001  49.81863  49.62755  50.74893
      13  46.84115  49.78166         16.03666   9.519680  49.62755  50.74893  44.08001  49.81863  44.05476  48.81439  49.60229  49.74469
      13  46.81589  48.77704         16.04900   9.519680  49.60229  49.74469  44.05476  48.81439  44.02948  47.80938  49.57702  48.73968
      13  46.79061  47.77164         16.06135   9.519680  49.57702  48.73968  44.02948  47.80938  44.00419  46.80360  49.55173  47.73390
      13  46.76530  46.76547         16.07371   9.519680  49.55173  47.73390  44.00419  46.80360  43.97888  45.79704  49.52642  46.72734
      13  46.73998  45.75852         16.08608   9.519680  49.52642  46.72734  43.97888  45.79704  43.95355  44.78971  49.50108  45.72001
      13  46.71464  44.75080         16.09845   9.519680  49.50108  45.72001  43.95355  44.78971  43.92820  43.78160  49.47573  44.71190
      13  46.68928  43.74231         16.11084   9.519680  49.47573  44.71190  43.92820  43.78160  43.90283  42.77272  49.45036  43.70302
      13  46.66390  42.73304         16.12324   9.519680  49.45036  43.70302  43.90283  42.77272  43.87744  41.76306  49.42497  42.69336
      13  46.63850  41.72299         16.13565   9.519680  49.42497  42.69336  43.87744  41.76306  43.85203  40.75262  49.39956  41.68292
      13  46.61308  40.71217         16.14806   9.519680  49.39956  41.68292  43.85203  40.75262  43.82660  39.74141  49.37413  40.67171
      13  46.58764  39.70056         16.16049   9.519680  49.37413  40.67171  43.82660  39.74141  43.80115  38.72942  49.34869  39.65972
      13  46.56218  38.68818         16.17293   9.519680  49.34869  39.65972  43.80115  38.72942  43.77568  37.71665  49.32322  38.64695
      13  46.53671  37.67502         16.18537   9.519680  49.32322  38.64695  43.77568  37.71665  43.75019  36.70310  49.29773  37.63340
      13  46.51121  36.66108         16.19783   9.519680  49.29773  37.63340  43.75019  36.70310  43.72469  35.68877  49.27222  36.61907
      13  46.48569  35.64636         16.21029   9.519680  49.27222  36.61907  43.72469  35.68877  43.69916  34.67366  49.24670  35.60396
      13  46.46015  34.63086         16.22277   9.519680  49.24670  35.60396  43.69916  34.67366  43.67361  33.65777  49.22115  34.58806
      13  46.43460  33.61458         16.23525   9.519680  49.22115  34.58806  43.67361  33.65777  43.64805  32.64109  49.19558  33.57139
      13  46.40902  32.59751         16.24774   9.519680  49.19558  33.57139  43.64805  32.64109  43.62246  31.62364  49.17000  32.55393
      13  46.38343  31.57967         16.26025   9.519680  49.17000  32.55393  43.62246  31.62364  43.59685  30.60540  49.14439  31.53570
      13  46.35781  30.56104         16.27276   9.519680  49.14439  31.53570  43.59685  30.60540  43.57123  29.58638  49.11877  30.51667
      13  46.33217  29.54162         16.28528   9.519680  49.11877  30.51667  43.57123  29.58638  43.54558  28.56657  49.09312  29.49687
      13  46.30652  28.52142         16.29781   9.519680  49.09312  29.49687  43.54558  28.56657  43.51992  27.54598  49.06746  28.47628
      13  46.28084  27.50044         16.31035   9.519680  49.06746  28.47628  43.51992  27.54598  43.49423  26.52460  49.04177  27.45490
      13  46.25515  26.47867         16.32291   9.519680  49.04177  27.45490  43.49423  26.52460  43.46853  25.50244  49.01607  26.43274
      13  46.22944  25.45611         16.33547   9.519680  49.01607  26.43274  43.46853  25.50244  43.44281  24.47949  48.99034  25.40979
      13  46.20370  24.43277         16.34804   9.519680  48.99034  25.40979  43.44281  24.47949  43.41706  23.45575  48.96460  24.38605
      13  46.17795  23.40864         16.36062   9.519680  48.96460  24.38605  43.41706  23.45575  43.39130  22.43123  48.93883  23.36153
      13  46.15217  22.38372         16.37321   9.519680  48.93883  23.36153  43.39130  22.43123  43.36551  21.40592  48.91305  22.33621
      13  46.12638  21.35801         16.38581   9.519680  48.91305  22.33621  43.36551  21.40592  43.33971  20.37982  48.88725  21.31011
      13  46.10057  20.33152         16.39842   9.519680  48.88725  21.31011  43.33971  20.37982  43.31389  19.35292  48.86142  20.28322
      13  46.07473  19.30423         16.41104   9.519680  48.86142  20.28322  43.31389  19.35292  43.28804  18.32524  48.83558  19.25554
      13  46.04888  18.27616         16.42366   9.519680  48.83558  19.25554  43.28804  18.32524  43.26218  17.29677  48.80972  18.22707
      13  46.02301  17.24729         16.43630   9.519680  48.80972  18.22707  43.26218  17.29677  43.23630  16.26751  48.78384  17.19781
      13  45.99712  16.21763         16.44895   9.519680  48.78384  17.19781  43.23630  16.26751  43.21040  15.23745  48.75793  16.16775
      13  45.97120  15.18718         16.46161   9.519680  48.75793  16.16775  43.21040  15.23745  43.18447  14.20660  48.73201  15.13690
      13  45.94527  14.15593         16.47428   9.519680  48.73201  15.13690  43.18447  14.20660  43.15853  13.17496  48.70607  14.10526
      13  45.91932  13.12389         16.48695   9.519680  48.70607  14.10526  43.15853  13.17496  43.13257  12.14253  48.68010  13.07282
      13  45.89334  12.09106         16.49964   9.519680  48.68010  13.07282  43.13257  12.14253  43.10658  11.10930  48.65412  12.03959
      13  45.86735  11.05743         16.51234   9.519680  48.65412  12.03959  43.10658  11.10930  43.08058  10.07527  48.62812  11.00557
      13  45.84134  10.02301         16.52504   9.519680  48.62812  11.00557  43.08058  10.07527  43.05456   9.04045  48.60210   9.97075
      13  45.81531   8.98779         16.53776   9.519680  48.60210   9.97075  43.05456   9.04045  43.02852   8.00483  48.57605   8.93513
      13  45.78925   7.95177         16.55049   9.519680  48.57605   8.93513  43.02852   8.00483  43.00245   6.96842  48.54999   7.89872
      13  45.76318   6.91496         16.56322   9.519680  48.54999   7.89872  43.00245   6.96842  42.97637   5.93121  48.52391   6.86151
      13  45.73709   5.87735         16.57597   9.519680  48.52391   6.86151  42.97637   5.93121  42.95027   4.89320  48.49781   5.82350
      13  45.71098   4.83894         16.58872   9.519680  48.49781   5.82350  42.95027   4.89320  42.92415   3.85439  48.47168   4.78469
      13  45.68484   3.79973         16.60149   9.519680  48.47168   4.78469  42.92415   3.85439  42.89800   2.81478  48.44554   3.74508
      13  45.65869   2.75973         16.61427   9.519680  48.44554   3.74508  42.89800   2.81478  42.87184   1.77437  48.41938   2.70467
      13  45.63252   1.71892         16.62705   9.519680  48.41938   2.70467  42.87184   1.77437  42.84566   0.73316  48.39319   1.66346
      13  45.60632   0.67731         16.63985   9.519680  48.39319   1.66346  42.84566   0.73316  42.81945  -0.30885  48.36699   0.62145
      12  32.10344 127.93919         16.31035  10.281000  34.88845 128.91846  29.35376 127.91453  29.31843 126.95992  34.85311 127.96384
      12  32.06809 126.98420         16.32291  10.281000  34.85311 127.96384  29.31843 126.95992  29.28307 126.00456  34.81775 127.00849
      12  32.03272 126.02848         16.33547  10.281000  34.81775 127.00849  29.28307 126.00456  29.24768 125.04848  34.78237 126.05241
      12  31.99732 125.07203         16.34804  10.281000  34.78237 126.05241  29.24768 125.04848  29.21227 124.09166  34.74695 125.09558
      12  31.96189 124.11484         16.36062  10.281000  34.74695 125.09558  29.21227 124.09166  29.17682 123.13410  34.71151 124.13803
      12  31.92643 123.15692         16.37321  10.281000  34.71151 124.13803  29.17682 123.13410  29.14136 122.17580  34.67604 123.17973
      12  31.89095 122.19825         16.38581  10.281000  34.67604 123.17973  29.14136 122.17580  29.10586 121.21677  34.64055 122.22070
      12  31.85544 121.23885         16.39842  10.281000  34.64055 122.22070  29.10586 121.21677  29.07034 120.25700  34.60502 121.26093
      12  31.81990 120.27871         16.41104  10.281000  34.60502 121.26093  29.07034 120.25700  29.03479 119.29649  34.56947 120.30042
      12  31.78434 119.31783         16.42366  10.281000  34.56947 120.30042  29.03479 119.29649  28.99921 118.33525  34.53389 119.33917
      12  31.74875 118.35621         16.43630  10.281000  34.53389 119.33917  28.99921 118.33525  28.96360 117.37326  34.49829 118.37718
      12  31.71313 117.39386         16.44895  10.281000  34.49829 118.37718  28.96360 117.37326  28.92797 116.41053  34.46266 117.41446
      12  31.67748 116.43076         16.46161  10.281000  34.46266 117.41446  28.92797 116.41053  28.89231 115.44706  34.42700 116.45099
      12  31.64181 115.46692         16.47428  10.281000  34.42700 116.45099  28.89231 115.44706  28.85662 114.48285  34.39131 115.48678
      12  31.60611 114.50234         16.48695  10.281000  34.39131 115.48678  28.85662 114.48285  28.82091 113.51790  34.35559 114.52183
      12  31.57038 113.53701         16.49964  10.281000  34.35559 114.52183  28.82091 113.51790  28.78516 112.55220  34.31985 113.55613
      12  31.53462 112.57095         16.51234  10.281000  34.31985 113.55613  28.78516 112.55220  28.74939 111.58577  34.28408 112.58969
      12  31.49884 111.60414         16.52504  10.281000  34.28408 112.58969  28.74939 111.58577  28.71360 110.61858  34.24828 111.62251
      12  31.46303 110.63659         16.53776  10.281000  34.24828 111.62251  28.71360 110.61858  28.67777 109.65066  34.21246 110.65459
      12  31.42719 109.66829         16.55049  10.281000  34.21246 110.65459  28.67777 109.65066  28.64192 108.68199  34.17660 109.68592
      12  31.39132 108.69924         16.56322  10.281000  34.17660 109.68592  28.64192 108.68199  28.60604 107.71257  34.14072 108.71650
      12  31.35543 107.72945         16.57597  10.281000  34.14072 108.71650  28.60604 107.71257  28.57013 106.74241  34.10482 107.74634
      12  31.31950 106.75892         16.58872  10.281000  34.10482 107.74634  28.57013 106.74241  28.53419 105.77150  34.06888 106.77543
      12  31.28356 105.78764         16.60149  10.281000  34.06888 106.77543  28.53419 105.77150  28.49823 104.79985  34.03292 105.80377
      12  31.24758 104.81561         16.61427  10.281000  34.03292 105.80377  28.49823 104.79985  28.46224 103.82744  33.99693 104.83137
      12  31.21157 103.84283         16.62705  10.281000  33.99693 104.83137  28.46224 103.82744  28.42622 102.85429  33.96091 103.85822
      12  31.17554 102.86930         16.63985  10.281000  33.96091 103.85822  28.42622 102.85429  28.39017 101.88039  33.92486 102.88432
      12  31.13948 101.89503         16.65265  10.281000  33.92486 102.88432  28.39017 101.88039  28.35410 100.90574  33.88879 101.90967
      12  31.10339 100.92000         16.66547  10.281000  33.88879 101.90967  28.35410 100.90574  28.31800  99.93034  33.85268 100.93427
      12  31.06728  99.94423         16.67829  10.281000  33.85268 100.93427  28.31800  99.93034  28.28187  98.95419  33.81656  99.95812
      12  31.03113  98.96770         16.69112  10.281000  33.81656  99.95812  28.28187  98.95419  28.24571  97.97729  33.78040  98.98121
      12  30.99496  97.99042         16.70397  10.281000  33.78040  98.98121  28.24571  97.97729  28.20953  96.99963  33.74421  98.00356
      12  30.95876  97.01239         16.71682  10.281000  33.74421  98.00356  28.20953  96.99963  28.17331  96.02123  33.70800  97.02516
      12  30.92254  96.03361         16.72969  10.281000  33.70800  97.02516  28.17331  96.02123  28.13707  95.04207  33.67176  96.04600
      12  30.88628  95.05408         16.74256  10.281000  33.67176  96.04600  28.13707  95.04207  28.10080  94.06216  33.63549  95.06608
      12  30.85000  94.07379         16.75544  10.281000  33.63549  95.06608  28.10080  94.06216  28.06451  93.08149  33.59919  94.08542
      12  30.81369  93.09274         16.76834  10.281000  33.59919  94.08542  28.06451  93.08149  28.02818  92.10007  33.56287  93.10400
      12  30.77735  92.11094         16.78124  10.281000  33.56287  93.10400  28.02818  92.10007  27.99183  91.11789  33.52652  92.12182
      12  30.74098  91.12839         16.79416  10.281000  33.52652  92.12182  27.99183  91.11789  27.95545  90.13496  33.49013  91.13889
      12  30.70459  90.14508         16.80708  10.281000  33.49013  91.13889  27.95545  90.13496  27.91904  89.15127  33.45373  90.15520
      12  30.66816  89.16101         16.82001  10.281000  33.45373  90.15520  27.91904  89.15127  27.88260  88.16683  33.41729  89.17075
      12  30.63171  88.17619         16.83296  10.281000  33.41729  89.17075  27.88260  88.16683  27.84614  87.18162  33.38082  88.18555
      12  30.59524  87.19061         16.84591  10.281000  33.38082  88.18555  27.84614  87.18162  27.80965  86.19566  33.34433  87.19959
      12  30.55873  86.20427         16.85887  10.281000  33.34433  87.19959  27.80965  86.19566  27.77312  85.20894  33.30781  86.21287
      12  30.52219  85.21717         16.87185  10.281000  33.30781  86.21287  27.77312  85.20894  27.73658  84.22146  33.27126  85.22539
      12  30.48563  84.22931         16.88483  10.281000  33.27126  85.22539  27.73658  84.22146  27.70000  83.23322  33.23469  84.23715
      12  30.44904  83.24069         16.89782  10.281000  33.23469  84.23715  27.70000  83.23322  27.66339  82.24423  33.19808  83.24815
      12  30.41242  82.25131         16.91083  10.281000  33.19808  83.24815  27.66339  82.24423  27.62676  81.25446  33.16145  82.25839
      12  30.37577  81.26117         16.92384  10.281000  33.16145  82.25839  27.62676  81.25446  27.59010  80.26394  33.12479  81.26787
      12  30.33910  80.27026         16.93686  10.281000  33.12479  81.26787  27.59010  80.26394  27.55341  79.27266  33.08810  80.27659
      12  30.30239  79.27860         16.94990  10.281000  33.08810  80.27659  27.55341  79.27266  27.51669  78.28061  33.05138  79.28454
      12  30.26566  78.28617         16.96294  10.281000  33.05138  79.28454  27.51669  78.28061  27.47994  77.28780  33.01463  78.29173
      12  30.22890  77.29298         16.97599  10.281000  33.01463  78.29173  27.47994  77.28780  27.44317  76.29423  32.97786  77.29815
      12  30.19211  76.29902         16.98906  10.281000  32.97786  77.29815  27.44317  76.29423  27.40637  75.29989  32.94105  76.30381
      12  30.15529  75.30430         17.00213  10.281000  32.94105  76.30381  27.40637  75.29989  27.36954  74.30478  32.90422  75.30871
      12  30.11845  74.30881         17.01521  10.281000  32.90422  75.30871  27.36954  74.30478  27.33268  73.30891  32.86736  74.31284
      12  30.08158  73.31256         17.02831  10.281000  32.86736  74.31284  27.33268  73.30891  27.29579  72.31227  32.83048  73.31620
      12  30.04467  72.31554         17.04141  10.281000  32.83048  73.31620  27.29579  72.31227  27.25887  71.31487  32.79356  72.31880
      12  30.00774  71.31775         17.05452  10.281000  32.79356  72.31880  27.25887  71.31487  27.22193  70.31670  32.75661  71.32063
      12  29.97078  70.31919         17.06765  10.281000  32.75661  71.32063  27.22193  70.31670  27.18495  69.31776  32.71964  70.32169
      12  29.93380  69.31987         17.08078  10.281000  32.71964  70.32169  27.18495  69.31776  27.14795  68.31805  32.68264  69.32198
      12  29.89678  68.31978         17.09393  10.281000  32.68264  69.32198  27.14795  68.31805  27.11092  67.31758  32.64561  68.32150
      12  29.85974  67.31892         17.10708  10.281000  32.64561  68.32150  27.11092  67.31758  27.07386  66.31633  32.60855  67.32026
      12  29.82266  66.31728         17.12025  10.281000  32.60855  67.32026  27.07386  66.31633  27.03678  65.31431  32.57146  66.31824
      12  29.78556  65.31488         17.13342  10.281000  32.57146  66.31824  27.03678  65.31431  26.99966  64.31152  32.53435  65.31545
      12  29.74843  64.31171         17.14660  10.281000  32.53435  65.31545  26.99966  64.31152  26.96252  63.30796  32.49720  64.31189
      12  29.71127  63.30776         17.15980  10.281000  32.49720  64.31189  26.96252  63.30796  26.92535  62.30363  32.46003  63.30756
      12  29.67409  62.30304         17.17300  10.281000  32.46003  63.30756  26.92535  62.30363  26.88814  61.29852  32.42283  62.30245
      12  29.63687  61.29755         17.18622  10.281000  32.42283  62.30245  26.88814  61.29852  26.85091  60.29265  32.38560  61.29657
      12  29.59963  60.29128         17.19944  10.281000  32.38560  61.29657  26.85091  60.29265  26.81366  59.28599  32.34834  60.28992
      12  29.56236  59.28424         17.21268  10.281000  32.34834  60.28992  26.81366  59.28599  26.77637  58.27856  32.31105  59.28249
      12  29.52505  58.27643         17.22593  10.281000  32.31105  59.28249  26.77637  58.27856  26.73905  57.27036  32.27374  58.27429
      12  29.48772  57.26784         17.23918  10.281000  32.27374  58.27429  26.73905  57.27036  26.70171  56.26138  32.23639  57.26531
      12  29.45036  56.25847         17.25245  10.281000  32.23639  57.26531  26.70171  56.26138  26.66433  55.25163  32.19902  56.25556
      12  29.41298  55.24833         17.26572  10.281000  32.19902  56.25556  26.66433  55.25163  26.62693  54.24110  32.16162  55.24502
      12  29.37556  54.23740         17.27901  10.281000  32.16162  55.24502  26.62693  54.24110  26.58950  53.22979  32.12419  54.23371
      12  29.33811  53.22571         17.29231  10.281000  32.12419  54.23371  26.58950  53.22979  26.55204  52.21770  32.08673  53.22163
      12  29.30064  52.21323         17.30561  10.281000  32.08673  53.22163  26.55204  52.21770  26.51455  51.20483  32.04924  52.20876
      12  29.26314  51.19997         17.31893  10.281000  32.04924  52.20876  26.51455  51.20483  26.47704  50.19119  32.01172  51.19511
      12  29.22561  50.18594         17.33226  10.281000  32.01172  51.19511  26.47704  50.19119  26.43949  49.17676  31.97418  50.18069
      12  29.18804  49.17112         17.34560  10.281000  31.97418  50.18069  26.43949  49.17676  26.40191  48.16155  31.93660  49.16548
      12  29.15045  48.15552         17.35894  10.281000  31.93660  49.16548  26.40191  48.16155  26.36431  47.14556  31.89900  48.14949
      12  29.11284  47.13914         17.37230  10.281000  31.89900  48.14949  26.36431  47.14556  26.32668  46.12879  31.86136  47.13272
      12  29.07519  46.12198         17.38567  10.281000  31.86136  47.13272  26.32668  46.12879  26.28901  45.11124  31.82370  46.11517
      12  29.03751  45.10404         17.39905  10.281000  31.82370  46.11517  26.28901  45.11124  26.25132  44.09291  31.78601  45.09683
      12  28.99981  44.08531         17.41244  10.281000  31.78601  45.09683  26.25132  44.09291  26.21360  43.07379  31.74829  44.07771
      12  28.96207  43.06580         17.42584  10.281000  31.74829  44.07771  26.21360  43.07379  26.17585  42.05388  31.71054  43.05781
      12  28.92431  42.04550         17.43925  10.281000  31.71054  43.05781  26.17585  42.05388  26.13808  41.03320  31.67276  42.03712
      12  28.88652  41.02442         17.45267  10.281000  31.67276  42.03712  26.13808  41.03320  26.10027  40.01172  31.63496  41.01565
      12  28.84869  40.00256         17.46610  10.281000  31.63496  41.01565  26.10027  40.01172  26.06243  38.98946  31.59712  39.99339
      12  28.81084  38.97990         17.47954  10.281000  31.59712  39.99339  26.06243  38.98946  26.02457  37.96642  31.55925  38.97034
      12  28.77296  37.95646         17.49299  10.281000  31.55925  38.97034  26.02457  37.96642  25.98667  36.94258  31.52136  37.94651
      12  28.73505  36.93224         17.50645  10.281000  31.52136  37.94651  25.98667  36.94258  25.94875  35.91796  31.48344  36.92189
      12  28.69712  35.90722         17.51992  10.281000  31.48344  36.92189  25.94875  35.91796  25.91080  34.89255  31.44548  35.89648
      12  28.65915  34.88142         17.53340  10.281000  31.44548  35.89648  25.91080  34.89255  25.87281  33.86635  31.40750  34.87028
      12  28.62115  33.85482         17.54690  10.281000  31.40750  34.87028  25.87281  33.86635  25.83480  32.83936  31.36949  33.84329
      12  28.58313  32.82744         17.56040  10.281000  31.36949  33.84329  25.83480  32.83936  25.79676  31.81158  31.33145  32.81551
      12  28.54507  31.79926         17.57391  10.281000  31.33145  32.81551  25.79676  31.81158  25.75869  30.78301  31.29338  31.78694
      12  28.50699  30.77030         17.58744  10.281000  31.29338  31.78694  25.75869  30.78301  25.72059  29.75365  31.25528  30.75758
      12  28.46887  29.74054         17.60097  10.281000  31.25528  30.75758  25.72059  29.75365  25.68247  28.72350  31.21715  29.72743
      12  28.43073  28.70999         17.61451  10.281000  31.21715  29.72743  25.68247  28.72350  25.64431  27.69255  31.17899  28.69648
      12  28.39256  27.67865         17.62807  10.281000  31.17899  28.69648  25.64431  27.69255  25.60612  26.66081  31.14081  27.66474
      12  28.35436  26.64651         17.64163  10.281000  31.14081  27.66474  25.60612  26.66081  25.56790  25.62828  31.10259  26.63221
      12  28.31612  25.61358         17.65521  10.281000  31.10259  26.63221  25.56790  25.62828  25.52966  24.59495  31.06434  25.59888
      12  28.27786  24.57985         17.66880  10.281000  31.06434  25.59888  25.52966  24.59495  25.49138  23.56083  31.02607  24.56476
      12  28.23957  23.54533         17.68239  10.281000  31.02607  24.56476  25.49138  23.56083  25.45308  22.52591  30.98776  23.52984
      12  28.20125  22.51002         17.69600  10.281000  30.98776  23.52984  25.45308  22.52591  25.41474  21.49019  30.94943  22.49412
      12  28.16291  21.47390         17.70962  10.281000  30.94943  22.49412  25.41474  21.49019  25.37638  20.45368  30.91107  21.45761
      12  28.12453  20.43699         17.72325  10.281000  30.91107  21.45761  25.37638  20.45368  25.33799  19.41637  30.87267  20.42030
      12  28.08612  19.39928         17.73688  10.281000  30.87267  20.42030  25.33799  19.41637  25.29956  18.37826  30.83425  19.38219
      12  28.04768  18.36077         17.75053  10.281000  30.83425  19.38219  25.29956  18.37826  25.26111  17.33936  30.79580  18.34328
      12  28.00921  17.32147         17.76419  10.281000  30.79580  18.34328  25.26111  17.33936  25.22263  16.29965  30.75732  17.30358
      12  27.97072  16.28136         17.77786  10.281000  30.75732  17.30358  25.22263  16.29965  25.18412  15.25914  30.71880  16.26307
      12  27.93219  15.24045         17.79154  10.281000  30.71880  16.26307  25.18412  15.25914  25.14558  14.21784  30.68026  15.22176
      12  27.89363  14.19874         17.80523  10.281000  30.68026  15.22176  25.14558  14.21784  25.10701  13.17573  30.64169  14.17965
      12  27.85505  13.15624         17.81894  10.281000  30.64169  14.17965  25.10701  13.17573  25.06841  12.13282  30.60309  13.13674
      12  27.81643  12.11292         17.83265  10.281000  30.60309  13.13674  25.06841  12.13282  25.02978  11.08910  30.56446  12.09303
      12  27.77779  11.06881         17.84637  10.281000  30.56446  12.09303  25.02978  11.08910  24.99112  10.04459  30.52580  11.04851
      12  27.73911  10.02389         17.86010  10.281000  30.52580  11.04851  24.99112  10.04459  24.95243   8.99927  30.48711  10.00319
      12  27.70041   8.97817         17.87385  10.281000  30.48711  10.00319  24.95243   8.99927  24.91371   7.95314  30.44839   8.95707
      12  27.66167   7.93164         17.88760  10.281000  30.44839   8.95707  24.91371   7.95314  24.87496   6.90621  30.40964   7.91014
      12  27.62291   6.88431         17.90137  10.281000  30.40964   7.91014  24.87496   6.90621  24.83618   5.85848  30.37086   6.86240
      12  27.58412   5.83617         17.91514  10.281000  30.37086   6.86240  24.83618   5.85848  24.79737   4.80994  30.33205   5.81386
      12  27.54529   4.78723         17.92893  10.281000  30.33205   5.81386  24.79737   4.80994  24.75853   3.76059  30.29322   4.76451
      12  27.50644   3.73747         17.94273  10.281000  30.29322   4.76451  24.75853   3.76059  24.71966   2.71043  30.25435   3.71436
      12  27.46755   2.68691         17.95653  10.281000  30.25435   3.71436  24.71966   2.71043  24.68076   1.65947  30.21545   2.66339
      12  27.42864   1.63554         17.97035  10.281000  30.21545   2.66339  24.68076   1.65947  24.64183   0.60769  30.17652   1.61162
      12  27.38970   0.58337         17.98418  10.281000  30.17652   1.61162  24.64183   0.60769  24.60287  -0.44489  30.13756   0.55904
      11  12.38102 127.78187         17.72325  11.124100  15.16358 128.79057   9.64426 127.70531   9.59846 126.77317  15.11778 127.85843
      11  12.33520 126.84937         17.73688  11.124100  15.11778 127.85843   9.59846 126.77317   9.55262 125.84031  15.07194 126.92556
      11  12.28934 125.91614         17.75053  11.124100  15.07194 126.92556   9.55262 125.84031   9.50675 124.90673  15.02606 125.99198
      11  12.24345 124.98221         17.76419  11.124100  15.02606 125.99198   9.50675 124.90673   9.46084 123.97243  14.98015 125.05769
      11  12.19752 124.04755         17.77786  11.124100  14.98015 125.05769   9.46084 123.97243   9.41489 123.03741  14.93421 124.12267
      11  12.15156 123.11217         17.79154  11.124100  14.93421 124.12267   9.41489 123.03741   9.36891 122.10167  14.88823 123.18693
      11  12.10556 122.17607         17.80523  11.124100  14.88823 123.18693   9.36891 122.10167   9.32290 121.16522  14.84221 122.25047
      11  12.05953 121.23926         17.81894  11.124100  14.84221 122.25047   9.32290 121.16522   9.27685 120.22804  14.79616 121.31330
      11  12.01346 120.30172         17.83265  11.124100  14.79616 121.31330   9.27685 120.22804   9.23076 119.29014  14.75007 120.37540
      11  11.96736 119.36346         17.84637  11.124100  14.75007 120.37540   9.23076 119.29014   9.18464 118.35152  14.70395 119.43678
      11  11.92122 118.42448         17.86010  11.124100  14.70395 119.43678   9.18464 118.35152   9.13848 117.41218  14.65779 118.49744
      11  11.87504 117.48477         17.87385  11.124100  14.65779 118.49744   9.13848 117.41218   9.09229 116.47211  14.61160 117.55737
      11  11.82883 116.54435         17.88760  11.124100  14.61160 117.55737   9.09229 116.47211   9.04606 115.53132  14.56537 116.61658
      11  11.78258 115.60320         17.90137  11.124100  14.56537 116.61658   9.04606 115.53132   8.99979 114.58981  14.51911 115.67507
      11  11.73630 114.66132         17.91514  11.124100  14.51911 115.67507   8.99979 114.58981   8.95349 113.64757  14.47281 114.73283
      11  11.68998 113.71872         17.92893  11.124100  14.47281 114.73283   8.95349 113.64757   8.90716 112.70461  14.42647 113.78987
      11  11.64363 112.77539         17.94273  11.124100  14.42647 113.78987   8.90716 112.70461   8.86079 111.76092  14.38010 112.84618
      11  11.59724 111.83134         17.95653  11.124100  14.38010 112.84618   8.86079 111.76092   8.81438 110.81651  14.33370 111.90177
      11  11.55082 110.88657         17.97035  11.124100  14.33370 111.90177   8.81438 110.81651   8.76794 109.87137  14.28725 110.95662
      11  11.50436 109.94106         17.98418  11.124100  14.28725 110.95662   8.76794 109.87137   8.72146 108.92550  14.24078 110.01076
      11  11.45786 108.99483         17.99802  11.124100  14.24078 110.01076   8.72146 108.92550   8.67495 107.97890  14.19426 109.06416
      11  11.41133 108.04787         18.01187  11.124100  14.19426 109.06416   8.67495 107.97890   8.62840 107.03158  14.14771 108.11683
      11  11.36476 107.10018         18.02573  11.124100  14.14771 108.11683   8.62840 107.03158   8.58181 106.08352  14.10113 107.16878
      11  11.31816 106.15176         18.03960  11.124100  14.10113 107.16878   8.58181 106.08352   8.53519 105.13474  14.05450 106.22000
      11  11.27152 105.20261         18.05348  11.124100  14.05450 106.22000   8.53519 105.13474   8.48853 104.18523  14.00785 105.27048
      11  11.22484 104.25273         18.06738  11.124100  14.00785 105.27048   8.48853 104.18523   8.44184 103.23498  13.96115 104.32024
      11  11.17813 103.30212         18.08128  11.124100  13.96115 104.32024   8.44184 103.23498   8.39511 102.28401  13.91443 103.36926
      11  11.13139 102.35078         18.09519  11.124100  13.91443 103.36926   8.39511 102.28401   8.34834 101.33230  13.86766 102.41756
      11  11.08460 101.39871         18.10912  11.124100  13.86766 102.41756   8.34834 101.33230   8.30154 100.37986  13.82086 101.46512
      11  11.03778 100.44590         18.12305  11.124100  13.82086 101.46512   8.30154 100.37986   8.25471  99.42669  13.77402 100.51195
      11  10.99093  99.49236         18.13700  11.124100  13.77402 100.51195   8.25471  99.42669   8.20783  98.47278  13.72715  99.55804
      11  10.94404  98.53809         18.15096  11.124100  13.72715  99.55804   8.20783  98.47278   8.16092  97.51814  13.68024  98.60340
      11  10.89711  97.58308         18.16492  11.124100  13.68024  98.60340   8.16092  97.51814   8.11398  96.56277  13.63329  97.64803
      11  10.85015  96.62734         18.17890  11.124100  13.63329  97.64803   8.11398  96.56277   8.06700  95.60666  13.58631  96.69192
      11  10.80315  95.67086         18.19289  11.124100  13.58631  96.69192   8.06700  95.60666   8.01998  94.64981  13.53930  95.73507
      11  10.75611  94.71365         18.20689  11.124100  13.53930  95.73507   8.01998  94.64981   7.97293  93.69223  13.49224  94.77749
      11  10.70904  93.75570         18.22090  11.124100  13.49224  94.77749   7.97293  93.69223   7.92584  92.73391  13.44515  93.81917
      11  10.66193  92.79701         18.23492  11.124100  13.44515  93.81917   7.92584  92.73391   7.87871  91.77486  13.39803  92.86011
      11  10.61479  91.83759         18.24896  11.124100  13.39803  92.86011   7.87871  91.77486   7.83155  90.81506  13.35086  91.90032
      11  10.56761  90.87742         18.26300  11.124100  13.35086  91.90032   7.83155  90.81506   7.78435  89.85453  13.30366  90.93979
      11  10.52039  89.91652         18.27705  11.124100  13.30366  90.93979   7.78435  89.85453   7.73711  88.89326  13.25643  89.97851
      11  10.47314  88.95488         18.29112  11.124100  13.25643  89.97851   7.73711  88.89326   7.68984  87.93125  13.20916  89.01650
      11  10.42585  87.99250         18.30519  11.124100  13.20916  89.01650   7.68984  87.93125   7.64253  86.96849  13.16185  88.05375
      11  10.37852  87.02938         18.31928  11.124100  13.16185  88.05375   7.64253  86.96849   7.59519  86.00500  13.11451  87.09026
      11  10.33116  86.06551         18.33338  11.124100  13.11451  87.09026   7.59519  86.00500   7.54781  85.04077  13.06712  86.12602
      11  10.28376  85.10091         18.34748  11.124100  13.06712  86.12602   7.54781  85.04077   7.50039  84.07579  13.01971  85.16105
      11  10.23632  84.13556         18.36160  11.124100  13.01971  85.16105   7.50039  84.07579   7.45294  83.11007  12.97225  84.19533
      11  10.18885  83.16947         18.37573  11.124100  12.97225  84.19533   7.45294  83.11007   7.40545  82.14361  12.92476  83.22887
      11  10.14134  82.20264         18.38987  11.124100  12.92476  83.22887   7.40545  82.14361   7.35792  81.17640  12.87724  82.26166
      11  10.09380  81.23506         18.40403  11.124100  12.87724  82.26166   7.35792  81.17640   7.31036  80.20845  12.82967  81.29371
      11  10.04622  80.26674         18.41819  11.124100  12.82967  81.29371   7.31036  80.20845   7.26276  79.23976  12.78207  80.32502
      11   9.99860  79.29767         18.43236  11.124100  12.78207  80.32502   7.26276  79.23976   7.21512  78.27032  12.73444  79.35558
      11   9.95094  78.32785         18.44655  11.124100  12.73444  79.35558   7.21512  78.27032   7.16745  77.30013  12.68676  78.38539
      11   9.90325  77.35730         18.46074  11.124100  12.68676  78.38539   7.16745  77.30013   7.11974  76.32920  12.63905  77.41446
      11   9.85552  76.38599         18.47495  11.124100  12.63905  77.41446   7.11974  76.32920   7.07199  75.35752  12.59131  76.44278
      11   9.80776  75.41393         18.48916  11.124100  12.59131  76.44278   7.07199  75.35752   7.02421  74.38509  12.54353  75.47035
      11   9.75996  74.44113         18.50339  11.124100  12.54353  75.47035   7.02421  74.38509   6.97639  73.41192  12.49571  74.49717
      11   9.71212  73.46758         18.51763  11.124100  12.49571  74.49717   6.97639  73.41192   6.92853  72.43799  12.44785  73.52325
      11   9.66424  72.49328         18.53188  11.124100  12.44785  73.52325   6.92853  72.43799   6.88064  71.46332  12.39995  72.54857
      11   9.61633  71.51823         18.54614  11.124100  12.39995  72.54857   6.88064  71.46332   6.83271  70.48789  12.35202  71.57315
      11   9.56838  70.54243         18.56041  11.124100  12.35202  71.57315   6.83271  70.48789   6.78474  69.51172  12.30406  70.59697
      11   9.52040  69.56588         18.57470  11.124100  12.30406  70.59697   6.78474  69.51172   6.73674  68.53479  12.25605  69.62005
      11   9.47237  68.58858         18.58899  11.124100  12.25605  69.62005   6.73674  68.53479   6.68870  67.55711  12.20801  68.64237
      11   9.42431  67.61053         18.60329  11.124100  12.20801  68.64237   6.68870  67.55711   6.64062  66.57868  12.15993  67.66394
      11   9.37622  66.63172         18.61761  11.124100  12.15993  67.66394   6.64062  66.57868   6.59250  65.59950  12.11182  66.68476
      11   9.32808  65.65216         18.63194  11.124100  12.11182  66.68476   6.59250  65.59950   6.54435  64.61956  12.06367  65.70482
      11   9.27991  64.67185         18.64627  11.124100  12.06367  65.70482   6.54435  64.61956   6.49616  63.63887  12.01548  64.72413
      11   9.23171  63.69078         18.66062  11.124100  12.01548  64.72413   6.49616  63.63887   6.44793  62.65743  11.96725  63.74268
      11   9.18346  62.70895         18.67498  11.124100  11.96725  63.74268   6.44793  62.65743   6.39967  61.67523  11.91899  62.76048
      11   9.13518  61.72638         18.68935  11.124100  11.91899  62.76048   6.39967  61.67523   6.35137  60.69227  11.87069  61.77753
      11   9.08686  60.74304         18.70374  11.124100  11.87069  61.77753   6.35137  60.69227   6.30303  59.70856  11.82235  60.79381
      11   9.03850  59.75895         18.71813  11.124100  11.82235  60.79381   6.30303  59.70856   6.25466  58.72409  11.77397  59.80934
      11   8.99011  58.77410         18.73253  11.124100  11.77397  59.80934   6.25466  58.72409   6.20625  57.73886  11.72556  58.82412
      11   8.94168  57.78849         18.74695  11.124100  11.72556  58.82412   6.20625  57.73886   6.15780  56.75287  11.67711  57.83813
      11   8.89321  56.80213         18.76137  11.124100  11.67711  57.83813   6.15780  56.75287   6.10931  55.76613  11.62862  56.85139
      11   8.84470  55.81500         18.77581  11.124100  11.62862  56.85139   6.10931  55.76613   6.06079  54.77862  11.58010  55.86388
      11   8.79616  54.82712         18.79026  11.124100  11.58010  55.86388   6.06079  54.77862   6.01222  53.79036  11.53154  54.87562
      11   8.74758  53.83848         18.80472  11.124100  11.53154  54.87562   6.01222  53.79036   5.96362  52.80134  11.48294  53.88659
      11   8.69896  52.84907         18.81919  11.124100  11.48294  53.88659   5.96362  52.80134   5.91499  51.81155  11.43430  52.89681
      11   8.65031  51.85891         18.83367  11.124100  11.43430  52.89681   5.91499  51.81155   5.86632  50.82100  11.38563  51.90626
      11   8.60162  50.86798         18.84816  11.124100  11.38563  51.90626   5.86632  50.82100   5.81760  49.82969  11.33692  50.91495
      11   8.55289  49.87629         18.86267  11.124100  11.33692  50.91495   5.81760  49.82969   5.76886  48.83762  11.28817  49.92288
      11   8.50412  48.88383         18.87718  11.124100  11.28817  49.92288   5.76886  48.83762   5.72007  47.84479  11.23938  48.93004
      11   8.45532  47.89062         18.89171  11.124100  11.23938  48.93004   5.72007  47.84479   5.67125  46.85119  11.19056  47.93644
      11   8.40647  46.89663         18.90625  11.124100  11.19056  47.93644   5.67125  46.85119   5.62238  45.85682  11.14170  46.94208
      11   8.35759  45.90189         18.92080  11.124100  11.14170  46.94208   5.62238  45.85682   5.57349  44.86169  11.09280  45.94695
      11   8.30868  44.90638         18.93536  11.124100  11.09280  45.94695   5.57349  44.86169   5.52455  43.86580  11.04386  44.95106
      11   8.25972  43.91010         18.94993  11.124100  11.04386  44.95106   5.52455  43.86580   5.47558  42.86914  10.99489  43.95439
      11   8.21073  42.91305         18.96451  11.124100  10.99489  43.95439   5.47558  42.86914   5.42656  41.87171  10.94588  42.95697
      11   8.16170  41.91524         18.97911  11.124100  10.94588  42.95697   5.42656  41.87171   5.37751  40.87351  10.89683  41.95877
      11   8.11263  40.91666         18.99371  11.124100  10.89683  41.95877   5.37751  40.87351   5.32843  39.87455  10.84774  40.95981
      11   8.06352  39.91731         19.00833  11.124100  10.84774  40.95981   5.32843  39.87455   5.27930  38.87482  10.79862  39.96007
      11   8.01438  38.91719         19.02295  11.124100  10.79862  39.96007   5.27930  38.87482   5.23014  37.87431  10.74945  38.95957
      11   7.96520  37.91631         19.03759  11.124100  10.74945  38.95957   5.23014  37.87431   5.18094  36.87304  10.70025  37.95830
      11   7.91598  36.91465         19.05224  11.124100  10.70025  37.95830   5.18094  36.87304   5.13170  35.87100  10.65102  36.95626
      11   7.86672  35.91222         19.06690  11.124100  10.65102  36.95626   5.13170  35.87100   5.08242  34.86819  10.60174  35.95344
      11   7.81742  34.90902         19.08158  11.124100  10.60174  35.95344   5.08242  34.86819   5.03311  33.86460  10.55242  34.94986
      11   7.76809  33.90505         19.09626  11.124100  10.55242  34.94986   5.03311  33.86460   4.98376  32.86024  10.50307  33.94550
      11   7.71872  32.90031         19.11095  11.124100  10.50307  33.94550   4.98376  32.86024   4.93437  31.85511  10.45368  32.94037
      11   7.66931  31.89479         19.12566  11.124100  10.45368  32.94037   4.93437  31.85511   4.88494  30.84921  10.40425  31.93447
      11   7.61986  30.88850         19.14038  11.124100  10.40425  31.93447   4.88494  30.84921   4.83547  29.84253  10.35479  30.92779
      11   7.57038  29.88143         19.15511  11.124100  10.35479  30.92779   4.83547  29.84253   4.78597  28.83508  10.30528  29.92033
      11   7.52085  28.87359         19.16985  11.124100  10.30528  29.92033   4.78597  28.83508   4.73643  27.82685  10.25574  28.91211
      11   7.47129  27.86498         19.18460  11.124100  10.25574  28.91211   4.73643  27.82685   4.68685  26.81785  10.20616  27.90310
      11   7.42169  26.85558         19.19936  11.124100  10.20616  27.90310   4.68685  26.81785   4.63723  25.80806  10.15654  26.89332
      11   7.37206  25.84541         19.21414  11.124100  10.15654  26.89332   4.63723  25.80806   4.58757  24.79751  10.10688  25.88277
      11   7.32238  24.83447         19.22892  11.124100  10.10688  25.88277   4.58757  24.79751   4.53787  23.78617  10.05719  24.87143
      11   7.27267  23.82274         19.24372  11.124100  10.05719  24.87143   4.53787  23.78617   4.48814  22.77406  10.00746  23.85932
      11   7.22291  22.81024         19.25853  11.124100  10.00746  23.85932   4.48814  22.77406   4.43837  21.76117   9.95768  22.84642
      11   7.17312  21.79696         19.27335  11.124100   9.95768  22.84642   4.43837  21.76117   4.38856  20.74750   9.90788  21.83275
      11   7.12329  20.78290         19.28818  11.124100   9.90788  21.83275   4.38856  20.74750   4.33871  19.73304   9.85803  20.81830
      11   7.07343  19.76806         19.30302  11.124100   9.85803  20.81830   4.33871  19.73304   4.28882  18.71781   9.80814  19.80307
      11   7.02352  18.75243         19.31788  11.124100   9.80814  19.80307   4.28882  18.71781   4.23890  17.70180   9.75822  18.78706
      11   6.97358  17.73603         19.33274  11.124100   9.75822  18.78706   4.23890  17.70180   4.18894  16.68500   9.70825  17.77026
      11   6.92359  16.71884         19.34762  11.124100   9.70825  17.77026   4.18894  16.68500   4.13893  15.66742   9.65825  16.75268
      11   6.87357  15.70087         19.36251  11.124100   9.65825  16.75268   4.13893  15.66742   4.08889  14.64906   9.60821  15.73432
      11   6.82351  14.68212         19.37741  11.124100   9.60821  15.73432   4.08889  14.64906   4.03882  13.62992   9.55813  14.71518
      11   6.77341  13.66258         19.39232  11.124100   9.55813  14.71518   4.03882  13.62992   3.98870  12.60999   9.50801  13.69525
      11   6.72328  12.64226         19.40724  11.124100   9.50801  13.69525   3.98870  12.60999   3.93854  11.58928   9.45786  12.67453
      11   6.67310  11.62116         19.42218  11.124100   9.45786  12.67453   3.93854  11.58928   3.88835  10.56778   9.40766  11.65304
      11   6.62289  10.59926         19.43712  11.124100   9.40766  11.65304   3.88835  10.56778   3.83811   9.54549   9.35743  10.63075
      11   6.57264   9.57659         19.45208  11.124100   9.35743  10.63075   3.83811   9.54549   3.78784   8.52242   9.30716   9.60768
      11   6.52235   8.55312         19.46705  11.124100   9.30716   9.60768   3.78784   8.52242   3.73753   7.49856   9.25685   8.58382
      11   6.47202   7.52887         19.48203  11.124100   9.25685   8.58382   3.73753   7.49856   3.68718   6.47391   9.20650   7.55917
      11   6.42165   6.50383         19.49702  11.124100   9.20650   7.55917   3.68718   6.47391   3.63680   5.44848   9.15611   6.53374
      11   6.37124   5.47800         19.51203  11.124100   9.15611   6.53374   3.63680   5.44848   3.58637   4.42225   9.10568   5.50751
      11   6.32079   4.45138         19.52704  11.124100   9.10568   5.50751   3.58637   4.42225   3.53590   3.39524   9.05522   4.48050
      11   6.27031   3.42397         19.54207  11.124100   9.05522   4.48050   3.53590   3.39524   3.48540   2.36744   9.00471   3.45269
      11   6.21978   2.39577         19.55710  11.124100   9.00471   3.45269   3.48540   2.36744   3.43486   1.33884   8.95417   2.42410
      11   6.16922   1.36678         19.57215  11.124100   8.95417   2.42410   3.43486   1.33884   3.38427   0.30945   8.90359   1.39471
      11   6.11862   0.33699         19.58722  11.124100   8.90359   1.39471   3.38427   0.30945   3.33365  -0.72073   8.85297   0.36453
